#Spectra: 1
Emin______Emax       8.430000000000000E+02  8.830000000000000E+02
EminPole__EmaxPole   8.532927862235118E+02  8.851198863746466E+02
dE________Gamma      2.000000000000000E-02  1.000000000000000E-01
Energy               Re[0]                  Im[0]                
 8.430000000000E+02  1.886401836834761E-03  6.066396579394043E-05
 8.430200000000E+02  2.005841232586753E-03  6.133294663826559E-05
 8.430400000000E+02  2.121788213135507E-03  6.198997710366085E-05
 8.430600000000E+02  2.232270889489745E-03  6.262722203032530E-05
 8.430800000000E+02  2.335907746183215E-03  6.323917393324638E-05
 8.431000000000E+02  2.431928350469098E-03  6.382273933761012E-05
 8.431200000000E+02  2.520091954148914E-03  6.437692023915919E-05
 8.431400000000E+02  2.600556378119319E-03  6.490229777825451E-05
 8.431600000000E+02  2.673741836714635E-03  6.540049491473400E-05
 8.431800000000E+02  2.740215649847038E-03  6.587372099452505E-05
 8.432000000000E+02  2.800606834635139E-03  6.632443402248361E-05
 8.432200000000E+02  2.855549173494109E-03  6.675511528710226E-05
 8.432400000000E+02  2.905646954967504E-03  6.716813351672634E-05
 8.432600000000E+02  2.951456875894628E-03  6.756567289882239E-05
 8.432800000000E+02  2.993480556921088E-03  6.794970306943403E-05
 8.433000000000E+02  3.032163537391445E-03  6.832197474983004E-05
 8.433200000000E+02  3.067897916488517E-03  6.868402983812133E-05
 8.433400000000E+02  3.101026814591460E-03  6.903721873847937E-05
 8.433600000000E+02  3.131849538909338E-03  6.938272051439916E-05
 8.433800000000E+02  3.160626808667291E-03  6.972156331368978E-05
 8.434000000000E+02  3.187585694032922E-03  7.005464369403985E-05
 8.434200000000E+02  3.212924105306828E-03  7.038274419877352E-05
 8.434400000000E+02  3.236814775714225E-03  7.070654895497573E-05
 8.434600000000E+02  3.259408740606694E-03  7.102665730162390E-05
 8.434800000000E+02  3.280838346527481E-03  7.134359557695768E-05
 8.435000000000E+02  3.301219837201623E-03  7.165782724849781E-05
 8.435200000000E+02  3.320655567410999E-03  7.196976158492764E-05
 8.435400000000E+02  3.339235894367592E-03  7.227976106405773E-05
 8.435600000000E+02  3.357040792254685E-03  7.258814769579326E-05
 8.435800000000E+02  3.374141230603694E-03  7.289520841949739E-05
 8.436000000000E+02  3.390600351969408E-03  7.320119971478227E-05
 8.436200000000E+02  3.406474479407284E-03  7.350635154533987E-05
 8.436400000000E+02  3.421813979757057E-03  7.381087073777344E-05
 8.436600000000E+02  3.436664004769771E-03  7.411494388185343E-05
 8.436800000000E+02  3.451065128686376E-03  7.441873982516022E-05
 8.437000000000E+02  3.465053897945822E-03  7.472241182358517E-05
 8.437200000000E+02  3.478663306219309E-03  7.502609939943116E-05
 8.437400000000E+02  3.491923205876760E-03  7.532992995065188E-05
 8.437600000000E+02  3.504860665236719E-03  7.563402014787478E-05
 8.437800000000E+02  3.517500279480480E-03  7.593847715010999E-05
 8.438000000000E+02  3.529864441880943E-03  7.624339966518675E-05
 8.438200000000E+02  3.541973580966682E-03  7.654887887695560E-05
 8.438400000000E+02  3.553846368380378E-03  7.685499925788643E-05
 8.438600000000E+02  3.565499901468316E-03  7.716183928288160E-05
 8.438800000000E+02  3.576949864032139E-03  7.746947205773634E-05
 8.439000000000E+02  3.588210668165615E-03  7.777796587368836E-05
 8.439200000000E+02  3.599295579670820E-03  7.808738469783171E-05
 8.439400000000E+02  3.610216829187781E-03  7.839778860773023E-05
 8.439600000000E+02  3.620985710867015E-03  7.870923417740462E-05
 8.439800000000E+02  3.631612670156661E-03  7.902177482083694E-05
 8.440000000000E+02  3.642107382057262E-03  7.933546109828003E-05
 8.440200000000E+02  3.652478821012313E-03  7.965034098995372E-05
 8.440400000000E+02  3.662735323443862E-03  7.996646014105533E-05
 8.440600000000E+02  3.672884643808330E-03  8.028386208152688E-05
 8.440800000000E+02  3.682934004932204E-03  8.060258842353159E-05
 8.441000000000E+02  3.692890143288753E-03  8.092267903923244E-05
 8.441200000000E+02  3.702759349791916E-03  8.124417222112012E-05
 8.441400000000E+02  3.712547506610917E-03  8.156710482686175E-05
 8.441600000000E+02  3.722260120446314E-03  8.189151241038626E-05
 8.441800000000E+02  3.731902352653660E-03  8.221742934071865E-05
 8.442000000000E+02  3.741479046554569E-03  8.254488890988838E-05
 8.442200000000E+02  3.750994752233602E-03  8.287392343107843E-05
 8.442400000000E+02  3.760453749084727E-03  8.320456432804162E-05
 8.442600000000E+02  3.769860066339698E-03  8.353684221669236E-05
 8.442800000000E+02  3.779217501784375E-03  8.387078697968157E-05
 8.443000000000E+02  3.788529638845543E-03  8.420642783465889E-05
 8.443200000000E+02  3.797799862209603E-03  8.454379339686201E-05
 8.443400000000E+02  3.807031372117768E-03  8.488291173658711E-05
 8.443600000000E+02  3.816227197465389E-03  8.522381043204452E-05
 8.443800000000E+02  3.825390207820044E-03  8.556651661804785E-05
 8.444000000000E+02  3.834523124460281E-03  8.591105703092821E-05
 8.444200000000E+02  3.843628530526353E-03  8.625745805003506E-05
 8.444400000000E+02  3.852708880364815E-03  8.660574573613906E-05
 8.444600000000E+02  3.861766508140256E-03  8.695594586702562E-05
 8.444800000000E+02  3.870803635779975E-03  8.730808397053591E-05
 8.445000000000E+02  3.879822380310910E-03  8.766218535528337E-05
 8.445200000000E+02  3.888824760642181E-03  8.801827513925846E-05
 8.445400000000E+02  3.897812703841307E-03  8.837637827650404E-05
 8.445600000000E+02  3.906788050947479E-03  8.873651958203659E-05
 8.445800000000E+02  3.915752562361281E-03  8.909872375516091E-05
 8.446000000000E+02  3.924707922845996E-03  8.946301540132315E-05
 8.446200000000E+02  3.933655746173217E-03  8.982941905261925E-05
 8.446400000000E+02  3.942597579441601E-03  9.019795918708129E-05
 8.446600000000E+02  3.951534907095033E-03  9.056866024684437E-05
 8.446800000000E+02  3.960469154664891E-03  9.094154665527862E-05
 8.447000000000E+02  3.969401692257892E-03  9.131664283318625E-05
 8.447200000000E+02  3.978333837809486E-03  9.169397321413200E-05
 8.447400000000E+02  3.987266860121214E-03  9.207356225898172E-05
 8.447600000000E+02  3.996201981698479E-03  9.245543446971565E-05
 8.447800000000E+02  4.005140381403934E-03  9.283961440256959E-05
 8.448000000000E+02  4.014083196940463E-03  9.322612668056996E-05
 8.448200000000E+02  4.023031527176346E-03  9.361499600550409E-05
 8.448400000000E+02  4.031986434324353E-03  9.400624716937041E-05
 8.448600000000E+02  4.040948945985386E-03  9.439990506536048E-05
 8.448800000000E+02  4.049920057066293E-03  9.479599469840160E-05
 8.449000000000E+02  4.058900731581531E-03  9.519454119529939E-05
 8.449200000000E+02  4.067891904345816E-03  9.559556981451944E-05
 8.449400000000E+02  4.076894482566730E-03  9.599910595562381E-05
 8.449600000000E+02  4.085909347343013E-03  9.640517516841014E-05
 8.449800000000E+02  4.094937355076025E-03  9.681380316175982E-05
 8.450000000000E+02  4.103979338799786E-03  9.722501581223319E-05
 8.450200000000E+02  4.113036109435224E-03  9.763883917242881E-05
 8.450400000000E+02  4.122108456973763E-03  9.805529947912712E-05
 8.450600000000E+02  4.131197151595073E-03  9.847442316123766E-05
 8.450800000000E+02  4.140302944723074E-03  9.889623684757222E-05
 8.451000000000E+02  4.149426570024389E-03  9.932076737445518E-05
 8.451200000000E+02  4.158568744353009E-03  9.974804179318746E-05
 8.451400000000E+02  4.167730168644663E-03  1.001780873773816E-04
 8.451600000000E+02  4.176911528763765E-03  1.006109316301802E-04
 8.451800000000E+02  4.186113496306596E-03  1.010466022913681E-04
 8.452000000000E+02  4.195336729362770E-03  1.014851273443963E-04
 8.452200000000E+02  4.204581873238108E-03  1.019265350233193E-04
 8.452400000000E+02  4.213849561140928E-03  1.023708538196668E-04
 8.452600000000E+02  4.223140414834378E-03  1.028181124892528E-04
 8.452800000000E+02  4.232455045256574E-03  1.032683400589329E-04
 8.453000000000E+02  4.241794053110604E-03  1.037215658333224E-04
 8.453200000000E+02  4.251158029426180E-03  1.041778194014778E-04
 8.453400000000E+02  4.260547556094692E-03  1.046371306435532E-04
 8.453600000000E+02  4.269963206379437E-03  1.050995297374381E-04
 8.453800000000E+02  4.279405545401723E-03  1.055650471653860E-04
 8.454000000000E+02  4.288875130605352E-03  1.060337137206382E-04
 8.454200000000E+02  4.298372512199842E-03  1.065055605140467E-04
 8.454400000000E+02  4.307898233584157E-03  1.069806189807104E-04
 8.454600000000E+02  4.317452831751652E-03  1.074589208866235E-04
 8.454800000000E+02  4.327036837677900E-03  1.079404983353461E-04
 8.455000000000E+02  4.336650776691447E-03  1.084253837746959E-04
 8.455200000000E+02  4.346295168829667E-03  1.089136100034796E-04
 8.455400000000E+02  4.355970529179282E-03  1.094052101782524E-04
 8.455600000000E+02  4.365677368203515E-03  1.099002178201250E-04
 8.455800000000E+02  4.375416192055895E-03  1.103986668216137E-04
 8.456000000000E+02  4.385187502881660E-03  1.109005914535426E-04
 8.456200000000E+02  4.394991799107737E-03  1.114060263720024E-04
 8.456400000000E+02  4.404829575721340E-03  1.119150066253689E-04
 8.456600000000E+02  4.414701324538430E-03  1.124275676613834E-04
 8.456800000000E+02  4.424607534462144E-03  1.129437453343080E-04
 8.457000000000E+02  4.434548691732002E-03  1.134635759121480E-04
 8.457200000000E+02  4.444525280164244E-03  1.139870960839560E-04
 8.457400000000E+02  4.454537781383908E-03  1.145143429672137E-04
 8.457600000000E+02  4.464586675048894E-03  1.150453541153025E-04
 8.457800000000E+02  4.474672439066817E-03  1.155801675250615E-04
 8.458000000000E+02  4.484795549804568E-03  1.161188216444393E-04
 8.458200000000E+02  4.494956482291392E-03  1.166613553802444E-04
 8.458400000000E+02  4.505155710415617E-03  1.172078081059955E-04
 8.458600000000E+02  4.515393707115367E-03  1.177582196698763E-04
 8.458800000000E+02  4.525670944563836E-03  1.183126304028023E-04
 8.459000000000E+02  4.535987894349012E-03  1.188710811265973E-04
 8.459200000000E+02  4.546345027648512E-03  1.194336131622892E-04
 8.459400000000E+02  4.556742815399810E-03  1.200002683385262E-04
 8.459600000000E+02  4.567181728465500E-03  1.205710890001150E-04
 8.459800000000E+02  4.577662237795001E-03  1.211461180166926E-04
 8.460000000000E+02  4.588184814581760E-03  1.217253987915256E-04
 8.460200000000E+02  4.598749930416856E-03  1.223089752704504E-04
 8.460400000000E+02  4.609358057439062E-03  1.228968919509501E-04
 8.460600000000E+02  4.620009668481642E-03  1.234891938913784E-04
 8.460800000000E+02  4.630705237215837E-03  1.240859267203332E-04
 8.461000000000E+02  4.641445238291434E-03  1.246871366461818E-04
 8.461200000000E+02  4.652230147474679E-03  1.252928704667388E-04
 8.461400000000E+02  4.663060441783559E-03  1.259031755791153E-04
 8.461600000000E+02  4.673936599620369E-03  1.265180999897245E-04
 8.461800000000E+02  4.684859100902296E-03  1.271376923244630E-04
 8.462000000000E+02  4.695828427189790E-03  1.277620018390613E-04
 8.462200000000E+02  4.706845061812862E-03  1.283910784296190E-04
 8.462400000000E+02  4.717909489995561E-03  1.290249726433208E-04
 8.462600000000E+02  4.729022198978700E-03  1.296637356893389E-04
 8.462800000000E+02  4.740183678140952E-03  1.303074194499304E-04
 8.463000000000E+02  4.751394419118559E-03  1.309560764917344E-04
 8.463200000000E+02  4.762654915923673E-03  1.316097600772673E-04
 8.463400000000E+02  4.773965665061187E-03  1.322685241766256E-04
 8.463600000000E+02  4.785327165644875E-03  1.329324234794113E-04
 8.463800000000E+02  4.796739919511962E-03  1.336015134068590E-04
 8.464000000000E+02  4.808204431337232E-03  1.342758501241995E-04
 8.464200000000E+02  4.819721208745910E-03  1.349554905532488E-04
 8.464400000000E+02  4.831290762426126E-03  1.356404923852257E-04
 8.464600000000E+02  4.842913606240445E-03  1.363309140938186E-04
 8.464800000000E+02  4.854590257336970E-03  1.370268149484902E-04
 8.465000000000E+02  4.866321236259866E-03  1.377282550280372E-04
 8.465200000000E+02  4.878107067059661E-03  1.384352952344076E-04
 8.465400000000E+02  4.889948277402975E-03  1.391479973067820E-04
 8.465600000000E+02  4.901845398682221E-03  1.398664238359239E-04
 8.465800000000E+02  4.913798966124985E-03  1.405906382788083E-04
 8.466000000000E+02  4.925809518903492E-03  1.413207049735316E-04
 8.466200000000E+02  4.937877600243790E-03  1.420566891545118E-04
 8.466400000000E+02  4.950003757535274E-03  1.427986569679894E-04
 8.466600000000E+02  4.962188542440082E-03  1.435466754878271E-04
 8.466800000000E+02  4.974432511002975E-03  1.443008127316238E-04
 8.467000000000E+02  4.986736223761047E-03  1.450611376771495E-04
 8.467200000000E+02  4.999100245854236E-03  1.458277202790997E-04
 8.467400000000E+02  5.011525147135902E-03  1.466006314861923E-04
 8.467600000000E+02  5.024011502283939E-03  1.473799432586046E-04
 8.467800000000E+02  5.036559890912457E-03  1.481657285857550E-04
 8.468000000000E+02  5.049170897684021E-03  1.489580615044537E-04
 8.468200000000E+02  5.061845112422519E-03  1.497570171174133E-04
 8.468400000000E+02  5.074583130226610E-03  1.505626716121407E-04
 8.468600000000E+02  5.087385551584276E-03  1.513751022802108E-04
 8.468800000000E+02  5.100252982487747E-03  1.521943875369407E-04
 8.469000000000E+02  5.113186034549673E-03  1.530206069414627E-04
 8.469200000000E+02  5.126185325120099E-03  1.538538412172208E-04
 8.469400000000E+02  5.139251477404314E-03  1.546941722728744E-04
 8.469600000000E+02  5.152385120582105E-03  1.555416832236641E-04
 8.469800000000E+02  5.165586889927633E-03  1.563964584131972E-04
 8.470000000000E+02  5.178857426930973E-03  1.572585834357037E-04
 8.470200000000E+02  5.192197379420579E-03  1.581281451587605E-04
 8.470400000000E+02  5.205607401687226E-03  1.590052317464880E-04
 8.470600000000E+02  5.219088154609028E-03  1.598899326832454E-04
 8.470800000000E+02  5.232640305778313E-03  1.607823387978279E-04
 8.471000000000E+02  5.246264529629485E-03  1.616825422881717E-04
 8.471200000000E+02  5.259961507568811E-03  1.625906367466059E-04
 8.471400000000E+02  5.273731928105477E-03  1.635067171856282E-04
 8.471600000000E+02  5.287576486984570E-03  1.644308800642462E-04
 8.471800000000E+02  5.301495887321600E-03  1.653632233148865E-04
 8.472000000000E+02  5.315490839738901E-03  1.663038463708893E-04
 8.472200000000E+02  5.329562062503669E-03  1.672528501945992E-04
 8.472400000000E+02  5.343710281668120E-03  1.682103373060722E-04
 8.472600000000E+02  5.357936231211694E-03  1.691764118124116E-04
 8.472800000000E+02  5.372240653184731E-03  1.701511794377510E-04
 8.473000000000E+02  5.386624297855027E-03  1.711347475538963E-04
 8.473200000000E+02  5.401087923855903E-03  1.721272252116500E-04
 8.473400000000E+02  5.415632298336782E-03  1.731287231728336E-04
 8.473600000000E+02  5.430258197116030E-03  1.741393539430202E-04
 8.473800000000E+02  5.444966404836226E-03  1.751592318050017E-04
 8.474000000000E+02  5.459757715121512E-03  1.761884728530126E-04
 8.474200000000E+02  5.474632930738061E-03  1.772271950277189E-04
 8.474400000000E+02  5.489592863756439E-03  1.782755181520040E-04
 8.474600000000E+02  5.504638335717141E-03  1.793335639675649E-04
 8.474800000000E+02  5.519770177798568E-03  1.804014561723447E-04
 8.475000000000E+02  5.534989230987842E-03  1.814793204588152E-04
 8.475200000000E+02  5.550296346254634E-03  1.825672845531488E-04
 8.475400000000E+02  5.565692384727707E-03  1.836654782552819E-04
 8.475600000000E+02  5.581178217874805E-03  1.847740334799092E-04
 8.475800000000E+02  5.596754727685307E-03  1.858930842984290E-04
 8.476000000000E+02  5.612422806856370E-03  1.870227669818648E-04
 8.476200000000E+02  5.628183358982240E-03  1.881632200447867E-04
 8.476400000000E+02  5.644037298746979E-03  1.893145842902648E-04
 8.476600000000E+02  5.659985552120573E-03  1.904770028558809E-04
 8.476800000000E+02  5.676029056558724E-03  1.916506212608224E-04
 8.477000000000E+02  5.692168761206136E-03  1.928355874540951E-04
 8.477200000000E+02  5.708405627103902E-03  1.940320518638836E-04
 8.477400000000E+02  5.724740627400093E-03  1.952401674480819E-04
 8.477600000000E+02  5.741174747565026E-03  1.964600897460466E-04
 8.477800000000E+02  5.757708985610135E-03  1.976919769315802E-04
 8.478000000000E+02  5.774344352311030E-03  1.989359898672004E-04
 8.478200000000E+02  5.791081871435047E-03  2.001922921597220E-04
 8.478400000000E+02  5.807922579972921E-03  2.014610502171874E-04
 8.478600000000E+02  5.824867528375189E-03  2.027424333071864E-04
 8.478800000000E+02  5.841917780792919E-03  2.040366136166003E-04
 8.479000000000E+02  5.859074415323472E-03  2.053437663128175E-04
 8.479200000000E+02  5.876338524260834E-03  2.066640696064552E-04
 8.479400000000E+02  5.893711214351235E-03  2.079977048156320E-04
 8.479600000000E+02  5.911193607053516E-03  2.093448564318408E-04
 8.479800000000E+02  5.928786838805005E-03  2.107057121874578E-04
 8.480000000000E+02  5.946492061292752E-03  2.120804631249443E-04
 8.480200000000E+02  5.964310441730073E-03  2.134693036677835E-04
 8.480400000000E+02  5.982243163138953E-03  2.148724316932069E-04
 8.480600000000E+02  6.000291424638266E-03  2.162900486067606E-04
 8.480800000000E+02  6.018456441737694E-03  2.177223594187613E-04
 8.481000000000E+02  6.036739446638199E-03  2.191695728227078E-04
 8.481200000000E+02  6.055141688538343E-03  2.206319012756889E-04
 8.481400000000E+02  6.073664433947192E-03  2.221095610808662E-04
 8.481600000000E+02  6.092308967004060E-03  2.236027724720760E-04
 8.481800000000E+02  6.111076589804636E-03  2.251117597006252E-04
 8.482000000000E+02  6.129968622734350E-03  2.266367511243372E-04
 8.482200000000E+02  6.148986404808849E-03  2.281779792989246E-04
 8.482400000000E+02  6.168131294021694E-03  2.297356810717485E-04
 8.482600000000E+02  6.187404667699730E-03  2.313100976780491E-04
 8.482800000000E+02  6.206807922865997E-03  2.329014748397037E-04
 8.483000000000E+02  6.226342476610901E-03  2.345100628666146E-04
 8.483200000000E+02  6.246009766471142E-03  2.361361167607773E-04
 8.483400000000E+02  6.265811250817253E-03  2.377798963231396E-04
 8.483600000000E+02  6.285748409249742E-03  2.394416662633154E-04
 8.483800000000E+02  6.305822743004016E-03  2.411216963122537E-04
 8.484000000000E+02  6.326035775364147E-03  2.428202613379515E-04
 8.484200000000E+02  6.346389052086444E-03  2.445376414643044E-04
 8.484400000000E+02  6.366884141832108E-03  2.462741221931896E-04
 8.484600000000E+02  6.387522636609963E-03  2.480299945298887E-04
 8.484800000000E+02  6.408306152229179E-03  2.498055551119585E-04
 8.485000000000E+02  6.429236328762524E-03  2.516011063416409E-04
 8.485200000000E+02  6.450314831020068E-03  2.534169565219502E-04
 8.485400000000E+02  6.471543349033890E-03  2.552534199965259E-04
 8.485600000000E+02  6.492923598554321E-03  2.571108172934073E-04
 8.485800000000E+02  6.514457321557166E-03  2.589894752728122E-04
 8.486000000000E+02  6.536146286763561E-03  2.608897272790951E-04
 8.486200000000E+02  6.557992290171387E-03  2.628119132969747E-04
 8.486400000000E+02  6.579997155599706E-03  2.647563801122179E-04
 8.486600000000E+02  6.602162735245903E-03  2.667234814768671E-04
 8.486800000000E+02  6.624490910256213E-03  2.687135782792349E-04
 8.487000000000E+02  6.646983591309900E-03  2.707270387187418E-04
 8.487200000000E+02  6.669642719217509E-03  2.727642384858164E-04
 8.487400000000E+02  6.692470265533500E-03  2.748255609470121E-04
 8.487600000000E+02  6.715468233183887E-03  2.769113973354898E-04
 8.487800000000E+02  6.738638657109163E-03  2.790221469470776E-04
 8.488000000000E+02  6.761983604922984E-03  2.811582173420853E-04
 8.488200000000E+02  6.785505177586922E-03  2.833200245530596E-04
 8.488400000000E+02  6.809205510102156E-03  2.855079932986842E-04
 8.488600000000E+02  6.833086772218134E-03  2.877225572040468E-04
 8.488800000000E+02  6.857151169159043E-03  2.899641590274788E-04
 8.489000000000E+02  6.881400942368528E-03  2.922332508941909E-04
 8.489200000000E+02  6.905838370272898E-03  2.945302945369560E-04
 8.489400000000E+02  6.930465769064011E-03  2.968557615440590E-04
