#Spectra: 1
Emin______Emax       8.430000000000000E+02  8.830000000000000E+02
EminPole__EmaxPole   8.537009956621730E+02  8.738686719122182E+02
dE________Gamma      2.000000000000000E-02  1.000000000000000E-01
Energy               Re[0]                  Im[0]                
 8.430000000000E+02  1.699244046504441E-03  5.655188405262959E-05
 8.430200000000E+02  1.806828077582284E-03  5.717821693128653E-05
 8.430400000000E+02  1.911275777552981E-03  5.779344495959130E-05
 8.430600000000E+02  2.010812507696442E-03  5.839026439579138E-05
 8.430800000000E+02  2.104194798371098E-03  5.896354077103738E-05
 8.431000000000E+02  2.190729014908204E-03  5.951038946826688E-05
 8.431200000000E+02  2.270198139376253E-03  6.002987891994869E-05
 8.431400000000E+02  2.342743808243921E-03  6.052254943429963E-05
 8.431600000000E+02  2.408743789790467E-03  6.098991242472393E-05
 8.431800000000E+02  2.468708251302604E-03  6.143402594643652E-05
 8.432000000000E+02  2.523202908628531E-03  6.185717992675233E-05
 8.432200000000E+02  2.572797797032978E-03  6.226168610354077E-05
 8.432400000000E+02  2.618036442094980E-03  6.264975140602149E-05
 8.432600000000E+02  2.659419572258294E-03  6.302341085631399E-05
 8.432800000000E+02  2.697398381280245E-03  6.338449958823551E-05
 8.433000000000E+02  2.732373621013586E-03  6.373464877054669E-05
 8.433200000000E+02  2.764697975345278E-03  6.407529500349009E-05
 8.433400000000E+02  2.794680072256311E-03  6.440769646197716E-05
 8.433600000000E+02  2.822589129871209E-03  6.473295167183456E-05
 8.433800000000E+02  2.848659656355135E-03  6.505201854023967E-05
 8.434000000000E+02  2.873095892469771E-03  6.536573236229027E-05
 8.434200000000E+02  2.896075849663667E-03  6.567482219744622E-05
 8.434400000000E+02  2.917754892684386E-03  6.597992540339592E-05
 8.434600000000E+02  2.938268869215159E-03  6.628160033439757E-05
 8.434800000000E+02  2.957736816615315E-03  6.658033732444465E-05
 8.435000000000E+02  2.976263288090443E-03  6.687656812614127E-05
 8.435200000000E+02  2.993940344130083E-03  6.717067399090331E-05
 8.435400000000E+02  3.010849253840386E-03  6.746299257143868E-05
 8.435600000000E+02  3.027061947253372E-03  6.775382381323944E-05
 8.435800000000E+02  3.042642255195255E-03  6.804343498359163E-05
 8.436000000000E+02  3.057646968614582E-03  6.833206496766755E-05
 8.436200000000E+02  3.072126744810221E-03  6.861992794313883E-05
 8.436400000000E+02  3.086126883951077E-03  6.890721652833912E-05
 8.436600000000E+02  3.099687995711928E-03  6.919410448448538E-05
 8.436800000000E+02  3.112846572763951E-03  6.948074903996179E-05
 8.437000000000E+02  3.125635485223610E-03  6.976729289393523E-05
 8.437200000000E+02  3.138084407930529E-03  7.005386594751877E-05
 8.437400000000E+02  3.150220190545496E-03  7.034058680305304E-05
 8.437600000000E+02  3.162067178879720E-03  7.062756406565370E-05
 8.437800000000E+02  3.173647494545115E-03  7.091489747580908E-05
 8.438000000000E+02  3.184981278907523E-03  7.120267889731156E-05
 8.438200000000E+02  3.196086906399127E-03  7.149099318103398E-05
 8.438400000000E+02  3.206981171470666E-03  7.177991892193405E-05
 8.438600000000E+02  3.217679452814854E-03  7.206952912401026E-05
 8.438800000000E+02  3.228195857947300E-03  7.235989178572957E-05
 8.439000000000E+02  3.238543350773995E-03  7.265107041659440E-05
 8.439200000000E+02  3.248733864389212E-03  7.294312449394290E-05
 8.439400000000E+02  3.258778401023259E-03  7.323610986776478E-05
 8.439600000000E+02  3.268687120785765E-03  7.353007912020828E-05
 8.439800000000E+02  3.278469420618167E-03  7.382508188549802E-05
 8.440000000000E+02  3.288134004672595E-03  7.412116513520899E-05
 8.440200000000E+02  3.297688947167531E-03  7.441837343313719E-05
 8.440400000000E+02  3.307141748628499E-03  7.471674916345773E-05
 8.440600000000E+02  3.316499386300736E-03  7.501633273535025E-05
 8.440800000000E+02  3.325768359416989E-03  7.531716276686158E-05
 8.441000000000E+02  3.334954729915459E-03  7.561927625041124E-05
 8.441200000000E+02  3.344064159125824E-03  7.592270870203991E-05
 8.441400000000E+02  3.353101940876446E-03  7.622749429622754E-05
 8.441600000000E+02  3.362073031418961E-03  7.653366598789533E-05
 8.441800000000E+02  3.370982076517875E-03  7.684125562298450E-05
 8.442000000000E+02  3.379833436010408E-03  7.715029403885813E-05
 8.442200000000E+02  3.388631206105391E-03  7.746081115560523E-05
 8.442400000000E+02  3.397379239658074E-03  7.777283605920735E-05
 8.442600000000E+02  3.406081164630149E-03  7.808639707741671E-05
 8.442800000000E+02  3.414740400920054E-03  7.840152184908811E-05
 8.443000000000E+02  3.423360175727648E-03  7.871823738763277E-05
 8.443200000000E+02  3.431943537599036E-03  7.903657013917980E-05
 8.443400000000E+02  3.440493369280552E-03  7.935654603597038E-05
 8.443600000000E+02  3.449012399497800E-03  7.967819054544789E-05
 8.443800000000E+02  3.457503213761993E-03  8.000152871546211E-05
 8.444000000000E+02  3.465968264295771E-03  8.032658521595465E-05
 8.444200000000E+02  3.474409879160362E-03  8.065338437746245E-05
 8.444400000000E+02  3.482830270657864E-03  8.098195022673096E-05
 8.444600000000E+02  3.491231543074303E-03  8.131230651970732E-05
 8.444800000000E+02  3.499615699823073E-03  8.164447677215108E-05
 8.445000000000E+02  3.507984650041736E-03  8.197848428807714E-05
 8.445200000000E+02  3.516340214690157E-03  8.231435218622750E-05
 8.445400000000E+02  3.524684132193600E-03  8.265210342474226E-05
 8.445600000000E+02  3.533018063669304E-03  8.299176082419147E-05
 8.445800000000E+02  3.541343597772191E-03  8.333334708910874E-05
 8.446000000000E+02  3.549662255191555E-03  8.367688482815744E-05
 8.446200000000E+02  3.557975492827530E-03  8.402239657304014E-05
 8.446400000000E+02  3.566284707673781E-03  8.436990479626812E-05
 8.446600000000E+02  3.574591240430168E-03  8.471943192787884E-05
 8.446800000000E+02  3.582896378866836E-03  8.507100037119067E-05
 8.447000000000E+02  3.591201360959903E-03  8.542463251767887E-05
 8.447200000000E+02  3.599507377816153E-03  8.578035076103970E-05
 8.447400000000E+02  3.607815576403511E-03  8.613817751051218E-05
 8.447600000000E+02  3.616127062102069E-03  8.649813520352079E-05
 8.447800000000E+02  3.624442901089268E-03  8.686024631768860E-05
 8.448000000000E+02  3.632764122571908E-03  8.722453338227452E-05
 8.448200000000E+02  3.641091720876163E-03  8.759101898908592E-05
 8.448400000000E+02  3.649426657406372E-03  8.795972580289728E-05
 8.448600000000E+02  3.657769862481839E-03  8.833067657143024E-05
 8.448800000000E+02  3.666122237060810E-03  8.870389413491604E-05
 8.449000000000E+02  3.674484654359544E-03  8.907940143528334E-05
 8.449200000000E+02  3.682857961373901E-03  8.945722152499676E-05
 8.449400000000E+02  3.691242980310402E-03  8.983737757557947E-05
 8.449600000000E+02  3.699640509932982E-03  9.021989288584002E-05
 8.449800000000E+02  3.708051326831392E-03  9.060479088983003E-05
 8.450000000000E+02  3.716476186616359E-03  9.099209516455828E-05
 8.450200000000E+02  3.724915825046707E-03  9.138182943747786E-05
 8.450400000000E+02  3.733370959093025E-03  9.177401759376160E-05
 8.450600000000E+02  3.741842287941751E-03  9.216868368339850E-05
 8.450800000000E+02  3.750330493944160E-03  9.256585192810920E-05
 8.451000000000E+02  3.758836243513403E-03  9.296554672810624E-05
 8.451200000000E+02  3.767360187973121E-03  9.336779266871557E-05
 8.451400000000E+02  3.775902964360840E-03  9.377261452686482E-05
 8.451600000000E+02  3.784465196188965E-03  9.418003727745603E-05
 8.451800000000E+02  3.793047494165990E-03  9.459008609963410E-05
 8.452000000000E+02  3.801650456880541E-03  9.500278638295933E-05
 8.452200000000E+02  3.810274671450499E-03  9.541816373349817E-05
 8.452400000000E+02  3.818920714139322E-03  9.583624397983877E-05
 8.452600000000E+02  3.827589150941880E-03  9.625705317904081E-05
 8.452800000000E+02  3.836280538141003E-03  9.668061762253091E-05
 8.453000000000E+02  3.844995422837356E-03  9.710696384194498E-05
 8.453200000000E+02  3.853734343453554E-03  9.753611861493687E-05
 8.453400000000E+02  3.862497830214392E-03  9.796810897094617E-05
 8.453600000000E+02  3.871286405604637E-03  9.840296219694087E-05
 8.453800000000E+02  3.880100584805383E-03  9.884070584314478E-05
 8.454000000000E+02  3.888940876110644E-03  9.928136772874143E-05
 8.454200000000E+02  3.897807781324990E-03  9.972497594757926E-05
 8.454400000000E+02  3.906701796143581E-03  1.001715588738650E-04
 8.454600000000E+02  3.915623410515312E-03  1.006211451678656E-04
 8.454800000000E+02  3.924573108990480E-03  1.010737637816153E-04
 8.455000000000E+02  3.933551371053230E-03  1.015294439646352E-04
 8.455200000000E+02  3.942558671440247E-03  1.019882152696701E-04
 8.455400000000E+02  3.951595480446173E-03  1.024501075584466E-04
 8.455600000000E+02  3.960662264216521E-03  1.029151510074577E-04
 8.455800000000E+02  3.969759485028598E-03  1.033833761137777E-04
 8.456000000000E+02  3.978887601561583E-03  1.038548137009090E-04
 8.456200000000E+02  3.988047069155919E-03  1.043294949246720E-04
 8.456400000000E+02  3.997238340062686E-03  1.048074512791307E-04
 8.456600000000E+02  4.006461863683735E-03  1.052887146025696E-04
 8.456800000000E+02  4.015718086802796E-03  1.057733170835165E-04
 8.457000000000E+02  4.025007453808246E-03  1.062612912668200E-04
 8.457200000000E+02  4.034330406907883E-03  1.067526700597818E-04
 8.457400000000E+02  4.043687386336170E-03  1.072474867383507E-04
 8.457600000000E+02  4.053078830554408E-03  1.077457749533786E-04
 8.457800000000E+02  4.062505176444256E-03  1.082475687369436E-04
 8.458000000000E+02  4.071966859494590E-03  1.087529025087418E-04
 8.458200000000E+02  4.081464313982667E-03  1.092618110825539E-04
 8.458400000000E+02  4.090997973149461E-03  1.097743296727863E-04
 8.458600000000E+02  4.100568269369588E-03  1.102904939010919E-04
 8.458800000000E+02  4.110175634316098E-03  1.108103398030746E-04
 8.459000000000E+02  4.119820499120529E-03  1.113339038350782E-04
 8.459200000000E+02  4.129503294528478E-03  1.118612228810630E-04
 8.459400000000E+02  4.139224451050516E-03  1.123923342595787E-04
 8.459600000000E+02  4.148984399109468E-03  1.129272757308254E-04
 8.459800000000E+02  4.158783569183526E-03  1.134660855038195E-04
 8.460000000000E+02  4.168622391945896E-03  1.140088022436564E-04
 8.460200000000E+02  4.178501298400916E-03  1.145554650788777E-04
 8.460400000000E+02  4.188420720016829E-03  1.151061136089490E-04
 8.460600000000E+02  4.198381088855818E-03  1.156607879118459E-04
 8.460800000000E+02  4.208382837700935E-03  1.162195285517514E-04
 8.461000000000E+02  4.218426400180155E-03  1.167823765868765E-04
 8.461200000000E+02  4.228512210888241E-03  1.173493735773961E-04
 8.461400000000E+02  4.238640705505910E-03  1.179205615935078E-04
 8.461600000000E+02  4.248812320916797E-03  1.184959832236226E-04
 8.461800000000E+02  4.259027495322523E-03  1.190756815826799E-04
 8.462000000000E+02  4.269286668355281E-03  1.196597003205998E-04
 8.462200000000E+02  4.279590281189074E-03  1.202480836308695E-04
 8.462400000000E+02  4.289938776648909E-03  1.208408762592726E-04
 8.462600000000E+02  4.300332599318369E-03  1.214381235127602E-04
 8.462800000000E+02  4.310772195645858E-03  1.220398712684715E-04
 8.463000000000E+02  4.321258014049152E-03  1.226461659829016E-04
 8.463200000000E+02  4.331790505018937E-03  1.232570547012284E-04
 8.463400000000E+02  4.342370121220891E-03  1.238725850667960E-04
 8.463600000000E+02  4.352997317596811E-03  1.244928053307589E-04
 8.463800000000E+02  4.363672551464635E-03  1.251177643618938E-04
 8.464000000000E+02  4.374396282617507E-03  1.257475116565837E-04
 8.464200000000E+02  4.385168973422173E-03  1.263820973489693E-04
 8.464400000000E+02  4.395991088916296E-03  1.270215722212867E-04
 8.464600000000E+02  4.406863096905401E-03  1.276659877143796E-04
 8.464800000000E+02  4.417785468058859E-03  1.283153959384070E-04
 8.465000000000E+02  4.428758676005865E-03  1.289698496837306E-04
 8.465200000000E+02  4.439783197430272E-03  1.296294024320081E-04
 8.465400000000E+02  4.450859512165600E-03  1.302941083674803E-04
 8.465600000000E+02  4.461988103289352E-03  1.309640223884623E-04
 8.465800000000E+02  4.473169457217298E-03  1.316392001190482E-04
 8.466000000000E+02  4.484404063797440E-03  1.323196979210245E-04
 8.466200000000E+02  4.495692416403773E-03  1.330055729060076E-04
 8.466400000000E+02  4.507035012030244E-03  1.336968829477991E-04
 8.466600000000E+02  4.518432351384325E-03  1.343936866949773E-04
 8.466800000000E+02  4.529884938980882E-03  1.350960435837157E-04
 8.467000000000E+02  4.541393283236120E-03  1.358040138508457E-04
 8.467200000000E+02  4.552957896561565E-03  1.365176585471637E-04
 8.467400000000E+02  4.564579295458281E-03  1.372370395509883E-04
 8.467600000000E+02  4.576258000611551E-03  1.379622195819731E-04
 8.467800000000E+02  4.587994536985521E-03  1.386932622151833E-04
 8.468000000000E+02  4.599789433918540E-03  1.394302318954413E-04
 8.468200000000E+02  4.611643225218591E-03  1.401731939519476E-04
 8.468400000000E+02  4.623556449259669E-03  1.409222146131720E-04
 8.468600000000E+02  4.635529649078033E-03  1.416773610220547E-04
 8.468800000000E+02  4.647563372469667E-03  1.424387012514742E-04
 8.469000000000E+02  4.659658172087777E-03  1.432063043200400E-04
 8.469200000000E+02  4.671814605541496E-03  1.439802402081761E-04
 8.469400000000E+02  4.684033235494817E-03  1.447605798745282E-04
 8.469600000000E+02  4.696314629766674E-03  1.455473952726905E-04
 8.469800000000E+02  4.708659361431534E-03  1.463407593682612E-04
 8.470000000000E+02  4.721068008920971E-03  1.471407461562386E-04
 8.470200000000E+02  4.733541156126189E-03  1.479474306787583E-04
 8.470400000000E+02  4.746079392501339E-03  1.487608890431857E-04
 8.470600000000E+02  4.758683313168038E-03  1.495811984405714E-04
 8.470800000000E+02  4.771353519020681E-03  1.504084371644743E-04
 8.471000000000E+02  4.784090616833082E-03  1.512426846301627E-04
 8.471200000000E+02  4.796895219365951E-03  1.520840213942099E-04
 8.471400000000E+02  4.809767945475982E-03  1.529325291744747E-04
 8.471600000000E+02  4.822709420225651E-03  1.537882908704996E-04
 8.471800000000E+02  4.835720274994801E-03  1.546513905843194E-04
 8.472000000000E+02  4.848801147592989E-03  1.555219136416947E-04
 8.472200000000E+02  4.861952682373796E-03  1.563999466137850E-04
 8.472400000000E+02  4.875175530350136E-03  1.572855773392645E-04
 8.472600000000E+02  4.888470349311118E-03  1.581788949468965E-04
 8.472800000000E+02  4.901837803940557E-03  1.590799898785805E-04
 8.473000000000E+02  4.915278565936809E-03  1.599889539128667E-04
 8.473200000000E+02  4.928793314134634E-03  1.609058801889754E-04
 8.473400000000E+02  4.942382734628064E-03  1.618308632313069E-04
 8.473600000000E+02  4.956047520895770E-03  1.627639989744783E-04
 8.473800000000E+02  4.969788373927446E-03  1.637053847888787E-04
 8.474000000000E+02  4.983606002352669E-03  1.646551195067651E-04
 8.474200000000E+02  4.997501122571065E-03  1.656133034489218E-04
 8.474400000000E+02  5.011474458884832E-03  1.665800384518730E-04
 8.474600000000E+02  5.025526743632937E-03  1.675554278956900E-04
 8.474800000000E+02  5.039658717327697E-03  1.685395767323830E-04
 8.475000000000E+02  5.053871128792979E-03  1.695325915149131E-04
 8.475200000000E+02  5.068164735304937E-03  1.705345804268211E-04
 8.475400000000E+02  5.082540302734797E-03  1.715456533125035E-04
 8.475600000000E+02  5.096998605694065E-03  1.725659217081452E-04
 8.475800000000E+02  5.111540427681562E-03  1.735954988733210E-04
 8.476000000000E+02  5.126166561233750E-03  1.746344998232955E-04
 8.476200000000E+02  5.140877808076509E-03  1.756830413620241E-04
 8.476400000000E+02  5.155674979280138E-03  1.767412421158847E-04
 8.476600000000E+02  5.170558895416638E-03  1.778092225681500E-04
 8.476800000000E+02  5.185530386719646E-03  1.788871050942300E-04
 8.477000000000E+02  5.200590293247213E-03  1.799750139976861E-04
 8.477200000000E+02  5.215739465047257E-03  1.810730755470612E-04
 8.477400000000E+02  5.230978762325813E-03  1.821814180135250E-04
 8.477600000000E+02  5.246309055618349E-03  1.833001717093631E-04
 8.477800000000E+02  5.261731225964110E-03  1.844294690273442E-04
 8.478000000000E+02  5.277246165083191E-03  1.855694444809606E-04
 8.478200000000E+02  5.292854775557322E-03  1.867202347455918E-04
 8.478400000000E+02  5.308557971013298E-03  1.878819787006044E-04
 8.478600000000E+02  5.324356676310138E-03  1.890548174724079E-04
 8.478800000000E+02  5.340251827729493E-03  1.902388944784976E-04
 8.479000000000E+02  5.356244373169451E-03  1.914343554725144E-04
 8.479200000000E+02  5.372335272341953E-03  1.926413485903352E-04
 8.479400000000E+02  5.388525496974006E-03  1.938600243972389E-04
 8.479600000000E+02  5.404816031012343E-03  1.950905359361604E-04
 8.479800000000E+02  5.421207870832281E-03  1.963330387770722E-04
 8.480000000000E+02  5.437702025450040E-03  1.975876910675188E-04
 8.480200000000E+02  5.454299516739553E-03  1.988546535843373E-04
 8.480400000000E+02  5.471001379653163E-03  2.001340897865941E-04
 8.480600000000E+02  5.487808662446441E-03  2.014261658697778E-04
 8.480800000000E+02  5.504722426907586E-03  2.027310508212649E-04
 8.481000000000E+02  5.521743748591098E-03  2.040489164771162E-04
 8.481200000000E+02  5.538873717056113E-03  2.053799375802236E-04
 8.481400000000E+02  5.556113436109081E-03  2.067242918398509E-04
 8.481600000000E+02  5.573464024051707E-03  2.080821599926042E-04
 8.481800000000E+02  5.590926613933418E-03  2.094537258648744E-04
 8.482000000000E+02  5.608502353808939E-03  2.108391764367938E-04
 8.482200000000E+02  5.626192407001086E-03  2.122387019077429E-04
 8.482400000000E+02  5.643997952368595E-03  2.136524957634533E-04
 8.482600000000E+02  5.661920184579743E-03  2.150807548447565E-04
 8.482800000000E+02  5.679960314391091E-03  2.165236794180216E-04
 8.483000000000E+02  5.698119568932172E-03  2.179814732473211E-04
 8.483200000000E+02  5.716399191995790E-03  2.194543436683951E-04
 8.483400000000E+02  5.734800444334490E-03  2.209425016644369E-04
 8.483600000000E+02  5.753324603962979E-03  2.224461619437774E-04
 8.483800000000E+02  5.771972966466856E-03  2.239655430195087E-04
 8.484000000000E+02  5.790746845317758E-03  2.255008672911062E-04
 8.484200000000E+02  5.809647572195230E-03  2.270523611281069E-04
 8.484400000000E+02  5.828676497314957E-03  2.286202549559018E-04
 8.484600000000E+02  5.847834989764459E-03  2.302047833437117E-04
 8.484800000000E+02  5.867124437845503E-03  2.318061850947956E-04
 8.485000000000E+02  5.886546249423845E-03  2.334247033389714E-04
 8.485200000000E+02  5.906101852286611E-03  2.350605856275100E-04
 8.485400000000E+02  5.925792694507309E-03  2.367140840304731E-04
 8.485600000000E+02  5.945620244818452E-03  2.383854552365671E-04
 8.485800000000E+02  5.965585992992527E-03  2.400749606555931E-04
 8.486000000000E+02  5.985691450231258E-03  2.417828665235609E-04
 8.486200000000E+02  6.005938149563141E-03  2.435094440105561E-04
 8.486400000000E+02  6.026327646249822E-03  2.452549693314359E-04
 8.486600000000E+02  6.046861518201495E-03  2.470197238594472E-04
 8.486800000000E+02  6.067541366401263E-03  2.488039942428495E-04
 8.487000000000E+02  6.088368815339283E-03  2.506080725246263E-04
 8.487200000000E+02  6.109345513456099E-03  2.524322562654045E-04
 8.487400000000E+02  6.130473133596406E-03  2.542768486696568E-04
 8.487600000000E+02  6.151753373472726E-03  2.561421587152832E-04
 8.487800000000E+02  6.173187956139419E-03  2.580285012867150E-04
 8.488000000000E+02  6.194778630477960E-03  2.599361973115972E-04
 8.488200000000E+02  6.216527171692698E-03  2.618655739012096E-04
 8.488400000000E+02  6.238435381818250E-03  2.638169644947041E-04
 8.488600000000E+02  6.260505090238599E-03  2.657907090073069E-04
 8.488800000000E+02  6.282738154217930E-03  2.677871539825928E-04
 8.489000000000E+02  6.305136459443928E-03  2.698066527489793E-04
 8.489200000000E+02  6.327701920583694E-03  2.718495655805402E-04
 8.489400000000E+02  6.350436481852624E-03  2.739162598623242E-04
