#Spectra: 1
Emin______Emax       8.430000000000000E+02  8.830000000000000E+02
EminPole__EmaxPole   8.543047842589654E+02  8.725064489964757E+02
dE________Gamma      2.000000000000000E-02  1.000000000000000E-01
Energy               Re[0]                  Im[0]                
 8.430000000000E+02  1.636813925831938E-03  5.195416155846581E-05
 8.430200000000E+02  1.740441895731475E-03  5.252066064667384E-05
 8.430400000000E+02  1.841036026015023E-03  5.307679253328383E-05
 8.430600000000E+02  1.936884852557837E-03  5.361584588603837E-05
 8.430800000000E+02  2.026789361608118E-03  5.413310399427124E-05
 8.431000000000E+02  2.110080953980822E-03  5.462591848044121E-05
 8.431200000000E+02  2.186550784773987E-03  5.509343620055640E-05
 8.431400000000E+02  2.256335952379354E-03  5.553615676035247E-05
 8.431600000000E+02  2.319801297771891E-03  5.595547209728209E-05
 8.431800000000E+02  2.377439335738015E-03  5.635327626329119E-05
 8.432000000000E+02  2.429796122018709E-03  5.673167607743297E-05
 8.432200000000E+02  2.477421838090835E-03  5.709279804990273E-05
 8.432400000000E+02  2.520841055753655E-03  5.743867201887244E-05
 8.432600000000E+02  2.560537029550966E-03  5.777116950424499E-05
 8.432800000000E+02  2.596945201367524E-03  5.809197801912774E-05
 8.433000000000E+02  2.630452328943296E-03  5.840259735300532E-05
 8.433200000000E+02  2.661398779172320E-03  5.870434823710341E-05
 8.433400000000E+02  2.690082401220749E-03  5.899838720832011E-05
 8.433600000000E+02  2.716763010849143E-03  5.928572389044715E-05
 8.433800000000E+02  2.741666926338605E-03  5.956723850617958E-05
 8.434000000000E+02  2.764991255871211E-03  5.984369844537170E-05
 8.434200000000E+02  2.786907794480132E-03  6.011577333255974E-05
 8.434400000000E+02  2.807566481395892E-03  6.038404839876522E-05
 8.434600000000E+02  2.827098420235552E-03  6.064903616432620E-05
 8.434800000000E+02  2.845618491078793E-03  6.091118654363700E-05
 8.435000000000E+02  2.863227595285549E-03  6.117089552908657E-05
 8.435200000000E+02  2.880014577293475E-03  6.142851262500249E-05
 8.435400000000E+02  2.896057866462753E-03  6.168434719809903E-05
 8.435600000000E+02  2.911426878613215E-03  6.193867389782056E-05
 8.435800000000E+02  2.926183212555556E-03  6.219173728321166E-05
 8.436000000000E+02  2.940381672400678E-03  6.244375577550073E-05
 8.436200000000E+02  2.954071142126312E-03  6.269492503892710E-05
 8.436400000000E+02  2.967295334973627E-03  6.294542087721337E-05
 8.436600000000E+02  2.980093436804044E-03  6.319540171977300E-05
 8.436800000000E+02  2.992500659568798E-03  6.344501076018923E-05
 8.437000000000E+02  3.004548718500620E-03  6.369437779966256E-05
 8.437200000000E+02  3.016266244483235E-03  6.394362083978684E-05
 8.437400000000E+02  3.027679141239386E-03  6.419284746196256E-05
 8.437600000000E+02  3.038810895454785E-03  6.444215602488215E-05
 8.437800000000E+02  3.049682846678900E-03  6.469163670655018E-05
 8.438000000000E+02  3.060314422775885E-03  6.494137241319119E-05
 8.438200000000E+02  3.070723345804543E-03  6.519143957391659E-05
 8.438400000000E+02  3.080925812458452E-03  6.544190883713050E-05
 8.438600000000E+02  3.090936652570520E-03  6.569284568223657E-05
 8.438800000000E+02  3.100769468660487E-03  6.594431095815338E-05
 8.439000000000E+02  3.110436759062554E-03  6.619636135846359E-05
 8.439200000000E+02  3.119950026798261E-03  6.644904984155136E-05
 8.439400000000E+02  3.129319876047464E-03  6.670242600290125E-05
 8.439600000000E+02  3.138556097805343E-03  6.695653640569155E-05
 8.439800000000E+02  3.147667746089569E-03  6.721142487495253E-05
 8.440000000000E+02  3.156663205872740E-03  6.746713275982948E-05
 8.440200000000E+02  3.165550253753416E-03  6.772369916786594E-05
 8.440400000000E+02  3.174336112242646E-03  6.798116117469237E-05
 8.440600000000E+02  3.183027498425005E-03  6.823955401205015E-05
 8.440800000000E+02  3.191630667654109E-03  6.849891123670078E-05
 8.441000000000E+02  3.200151452856230E-03  6.875926488243429E-05
 8.441200000000E+02  3.208595299942372E-03  6.902064559710099E-05
 8.441400000000E+02  3.216967299765763E-03  6.928308276636812E-05
 8.441600000000E+02  3.225272217007419E-03  6.954660462565746E-05
 8.441800000000E+02  3.233514516325249E-03  6.981123836157366E-05
 8.442000000000E+02  3.241698386060931E-03  7.007701020395075E-05
 8.442200000000E+02  3.249827759764811E-03  7.034394550952060E-05
 8.442400000000E+02  3.257906335766417E-03  7.061206883808513E-05
 8.442600000000E+02  3.265937594993582E-03  7.088140402196482E-05
 8.442800000000E+02  3.273924817218035E-03  7.115197422942372E-05
 8.443000000000E+02  3.281871095886360E-03  7.142380202266651E-05
 8.443200000000E+02  3.289779351676631E-03  7.169690941096441E-05
 8.443400000000E+02  3.297652344905740E-03  7.197131789937626E-05
 8.443600000000E+02  3.305492686898679E-03  7.224704853350718E-05
 8.443800000000E+02  3.313302850418913E-03  7.252412194067502E-05
 8.444000000000E+02  3.321085179248741E-03  7.280255836783545E-05
 8.444200000000E+02  3.328841896998549E-03  7.308237771656327E-05
 8.444400000000E+02  3.336575115216139E-03  7.336359957536975E-05
 8.444600000000E+02  3.344286840859816E-03  7.364624324959522E-05
 8.444800000000E+02  3.351978983192267E-03  7.393032778910083E-05
 8.445000000000E+02  3.359653360146921E-03  7.421587201395760E-05
 8.445200000000E+02  3.367311704212715E-03  7.450289453830748E-05
 8.445400000000E+02  3.374955667879474E-03  7.479141379256103E-05
 8.445600000000E+02  3.382586828681136E-03  7.508144804407459E-05
 8.445800000000E+02  3.390206693871276E-03  7.537301541643898E-05
 8.446000000000E+02  3.397816704761443E-03  7.566613390749786E-05
 8.446200000000E+02  3.405418240750523E-03  7.596082140620412E-05
 8.446400000000E+02  3.413012623070195E-03  7.625709570841023E-05
 8.446600000000E+02  3.420601118269681E-03  7.655497453168201E-05
 8.446800000000E+02  3.428184941460549E-03  7.685447552921958E-05
 8.447000000000E+02  3.435765259340687E-03  7.715561630295128E-05
 8.447200000000E+02  3.443343193014829E-03  7.745841441587566E-05
 8.447400000000E+02  3.450919820627171E-03  7.776288740370528E-05
 8.447600000000E+02  3.458496179820791E-03  7.806905278587513E-05
 8.447800000000E+02  3.466073270037073E-03  7.837692807595992E-05
 8.448000000000E+02  3.473652054666772E-03  7.868653079155078E-05
 8.448200000000E+02  3.481233463064210E-03  7.899787846363246E-05
 8.448400000000E+02  3.488818392434605E-03  7.931098864550121E-05
 8.448600000000E+02  3.496407709603515E-03  7.962587892125932E-05
 8.448800000000E+02  3.504002252677322E-03  7.994256691391584E-05
 8.449000000000E+02  3.511602832602278E-03  8.026107029312903E-05
 8.449200000000E+02  3.519210234629447E-03  8.058140678261754E-05
 8.449400000000E+02  3.526825219692074E-03  8.090359416725887E-05
 8.449600000000E+02  3.534448525701491E-03  8.122765029991132E-05
 8.449800000000E+02  3.542080868767299E-03  8.155359310797043E-05
 8.450000000000E+02  3.549722944346711E-03  8.188144059968414E-05
 8.450200000000E+02  3.557375428328282E-03  8.221121087024988E-05
 8.450400000000E+02  3.565038978053929E-03  8.254292210770044E-05
 8.450600000000E+02  3.572714233283794E-03  8.287659259860738E-05
 8.450800000000E+02  3.580401817107412E-03  8.321224073360471E-05
 8.451000000000E+02  3.588102336804807E-03  8.354988501275817E-05
 8.451200000000E+02  3.595816384660816E-03  8.388954405078230E-05
 8.451400000000E+02  3.603544538735506E-03  8.423123658212516E-05
 8.451600000000E+02  3.611287363593641E-03  8.457498146593082E-05
 8.451800000000E+02  3.619045410995622E-03  8.492079769088247E-05
 8.452000000000E+02  3.626819220552376E-03  8.526870437994909E-05
 8.452200000000E+02  3.634609320346563E-03  8.561872079503135E-05
 8.452400000000E+02  3.642416227521993E-03  8.597086634152661E-05
 8.452600000000E+02  3.650240448843208E-03  8.632516057281034E-05
 8.452800000000E+02  3.658082481227256E-03  8.668162319465332E-05
 8.453000000000E+02  3.665942812249020E-03  8.704027406956876E-05
 8.453200000000E+02  3.673821920621925E-03  8.740113322110667E-05
 8.453400000000E+02  3.681720276655376E-03  8.776422083809776E-05
 8.453600000000E+02  3.689638342690365E-03  8.812955727884863E-05
 8.453800000000E+02  3.697576573514358E-03  8.849716307530211E-05
 8.454000000000E+02  3.705535416756953E-03  8.886705893715984E-05
 8.454200000000E+02  3.713515313267084E-03  8.923926575597906E-05
 8.454400000000E+02  3.721516697473142E-03  8.961380460924206E-05
 8.454600000000E+02  3.729539997726712E-03  8.999069676440659E-05
 8.454800000000E+02  3.737585636631116E-03  9.036996368294197E-05
 8.455000000000E+02  3.745654031355341E-03  9.075162702435017E-05
 8.455200000000E+02  3.753745593934366E-03  9.113570865018309E-05
 8.455400000000E+02  3.761860731556634E-03  9.152223062805288E-05
 8.455600000000E+02  3.769999846839215E-03  9.191121523563989E-05
 8.455800000000E+02  3.778163338091604E-03  9.230268496470822E-05
 8.456000000000E+02  3.786351599568404E-03  9.269666252512250E-05
 8.456200000000E+02  3.794565021711932E-03  9.309317084887618E-05
 8.456400000000E+02  3.802803991384943E-03  9.349223309412989E-05
 8.456600000000E+02  3.811068892094118E-03  9.389387264926615E-05
 8.456800000000E+02  3.819360104204948E-03  9.429811313695950E-05
 8.457000000000E+02  3.827678005148199E-03  9.470497841826985E-05
 8.457200000000E+02  3.836022969618704E-03  9.511449259675515E-05
 8.457400000000E+02  3.844395369766541E-03  9.552668002261212E-05
 8.457600000000E+02  3.852795575381404E-03  9.594156529684233E-05
 8.457800000000E+02  3.861223954070249E-03  9.635917327545090E-05
 8.458000000000E+02  3.869680871428447E-03  9.677952907367582E-05
 8.458200000000E+02  3.878166691205287E-03  9.720265807025101E-05
 8.458400000000E+02  3.886681775463634E-03  9.762858591170940E-05
 8.458600000000E+02  3.895226484734091E-03  9.805733851672381E-05
 8.458800000000E+02  3.903801178164306E-03  9.848894208048678E-05
 8.459000000000E+02  3.912406213663398E-03  9.892342307913619E-05
 8.459200000000E+02  3.921041948041609E-03  9.936080827422768E-05
 8.459400000000E+02  3.929708737145856E-03  9.980112471725053E-05
 8.459600000000E+02  3.938406935990985E-03  1.002443997541957E-04
 8.459800000000E+02  3.947136898887316E-03  1.006906610301760E-04
 8.460000000000E+02  3.955898979564225E-03  1.011399364940976E-04
 8.460200000000E+02  3.964693531290390E-03  1.015922544033889E-04
 8.460400000000E+02  3.973520906990796E-03  1.020476433287863E-04
 8.460600000000E+02  3.982381459360192E-03  1.025061321591793E-04
 8.460800000000E+02  3.991275540974081E-03  1.029677501065165E-04
 8.461000000000E+02  4.000203504396452E-03  1.034325267107776E-04
 8.461200000000E+02  4.009165702285078E-03  1.039004918450073E-04
 8.461400000000E+02  4.018162487494082E-03  1.043716757204188E-04
 8.461600000000E+02  4.027194213174315E-03  1.048461088915666E-04
 8.461800000000E+02  4.036261232871149E-03  1.053238222615886E-04
 8.462000000000E+02  4.045363900620548E-03  1.058048470875247E-04
 8.462200000000E+02  4.054502571042574E-03  1.062892149857064E-04
 8.462400000000E+02  4.063677599433546E-03  1.067769579372311E-04
 8.462600000000E+02  4.072889341855747E-03  1.072681082935052E-04
 8.462800000000E+02  4.082138155226012E-03  1.077626987818785E-04
 8.463000000000E+02  4.091424397402323E-03  1.082607625113566E-04
 8.463200000000E+02  4.100748427268956E-03  1.087623329783997E-04
 8.463400000000E+02  4.110110604820329E-03  1.092674440728100E-04
 8.463600000000E+02  4.119511291243341E-03  1.097761300837095E-04
 8.463800000000E+02  4.128950848998511E-03  1.102884257056074E-04
 8.464000000000E+02  4.138429641899946E-03  1.108043660445640E-04
 8.464200000000E+02  4.147948035194144E-03  1.113239866244496E-04
 8.464400000000E+02  4.157506395637889E-03  1.118473233933031E-04
 8.464600000000E+02  4.167105091575010E-03  1.123744127297900E-04
 8.464800000000E+02  4.176744493012363E-03  1.129052914497666E-04
 8.465000000000E+02  4.186424971695075E-03  1.134399968129442E-04
 8.465200000000E+02  4.196146901180572E-03  1.139785665296701E-04
 8.465400000000E+02  4.205910656912558E-03  1.145210387678098E-04
 8.465600000000E+02  4.215716616293862E-03  1.150674521597478E-04
 8.465800000000E+02  4.225565158758752E-03  1.156178458095018E-04
 8.466000000000E+02  4.235456665845011E-03  1.161722592999568E-04
 8.466200000000E+02  4.245391521265175E-03  1.167307327002169E-04
 8.466400000000E+02  4.255370110977374E-03  1.172933065730835E-04
 8.466600000000E+02  4.265392823256206E-03  1.178600219826555E-04
 8.466800000000E+02  4.275460048762712E-03  1.184309205020643E-04
 8.467000000000E+02  4.285572180614311E-03  1.190060442213345E-04
 8.467200000000E+02  4.295729614454679E-03  1.195854357553808E-04
 8.467400000000E+02  4.305932748523062E-03  1.201691382521457E-04
 8.467600000000E+02  4.316181983723787E-03  1.207571954008719E-04
 8.467800000000E+02  4.326477723695276E-03  1.213496514405238E-04
 8.468000000000E+02  4.336820374879416E-03  1.219465511683502E-04
 8.468200000000E+02  4.347210346590571E-03  1.225479399486015E-04
 8.468400000000E+02  4.357648051084751E-03  1.231538637213964E-04
 8.468600000000E+02  4.368133903628698E-03  1.237643690117472E-04
 8.468800000000E+02  4.378668322569375E-03  1.243795029387440E-04
 8.469000000000E+02  4.389251729403062E-03  1.249993132248998E-04
 8.469200000000E+02  4.399884548845122E-03  1.256238482056673E-04
 8.469400000000E+02  4.410567208899521E-03  1.262531568391219E-04
 8.469600000000E+02  4.421300140929021E-03  1.268872887158198E-04
 8.469800000000E+02  4.432083779725145E-03  1.275262940688339E-04
 8.470000000000E+02  4.442918563578952E-03  1.281702237839716E-04
 8.470200000000E+02  4.453804934351531E-03  1.288191294101792E-04
 8.470400000000E+02  4.464743337545592E-03  1.294730631701333E-04
 8.470600000000E+02  4.475734222376741E-03  1.301320779710287E-04
 8.470800000000E+02  4.486778041845699E-03  1.307962274155613E-04
 8.471000000000E+02  4.497875252810622E-03  1.314655658131186E-04
 8.471200000000E+02  4.509026316060153E-03  1.321401481911700E-04
 8.471400000000E+02  4.520231696386967E-03  1.328200303068742E-04
 8.471600000000E+02  4.531491862661636E-03  1.335052686588981E-04
 8.471800000000E+02  4.542807287907493E-03  1.341959204994612E-04
 8.472000000000E+02  4.554178449375575E-03  1.348920438466011E-04
 8.472200000000E+02  4.565605828620822E-03  1.355936974966729E-04
 8.472400000000E+02  4.577089911578398E-03  1.363009410370797E-04
 8.472600000000E+02  4.588631188641073E-03  1.370138348592523E-04
 8.472800000000E+02  4.600230154737276E-03  1.377324401718618E-04
 8.473000000000E+02  4.611887309409735E-03  1.384568190143006E-04
 8.473200000000E+02  4.623603156895147E-03  1.391870342704035E-04
 8.473400000000E+02  4.635378206204644E-03  1.399231496824465E-04
 8.473600000000E+02  4.647212971204937E-03  1.406652298654072E-04
 8.473800000000E+02  4.659107970700601E-03  1.414133403214969E-04
 8.474000000000E+02  4.671063728517163E-03  1.421675474549823E-04
 8.474200000000E+02  4.683080773585049E-03  1.429279185872885E-04
 8.474400000000E+02  4.695159640024747E-03  1.436945219723978E-04
 8.474600000000E+02  4.707300867232820E-03  1.444674268125514E-04
 8.474800000000E+02  4.719504999969115E-03  1.452467032742514E-04
 8.475000000000E+02  4.731772588444779E-03  1.460324225045887E-04
 8.475200000000E+02  4.744104188411770E-03  1.468246566478823E-04
 8.475400000000E+02  4.756500361253250E-03  1.476234788626461E-04
 8.475600000000E+02  4.768961674075375E-03  1.484289633389092E-04
 8.475800000000E+02  4.781488699799867E-03  1.492411853158564E-04
 8.476000000000E+02  4.794082017258576E-03  1.500602210998427E-04
 8.476200000000E+02  4.806742211288572E-03  1.508861480827494E-04
 8.476400000000E+02  4.819469872829122E-03  1.517190447607256E-04
 8.476600000000E+02  4.832265599019649E-03  1.525589907532956E-04
 8.476800000000E+02  4.845129993299401E-03  1.534060668228539E-04
 8.477000000000E+02  4.858063665508235E-03  1.542603548945617E-04
 8.477200000000E+02  4.871067231989139E-03  1.551219380766389E-04
 8.477400000000E+02  4.884141315692233E-03  1.559909006810770E-04
 8.477600000000E+02  4.897286546280035E-03  1.568673282447715E-04
 8.477800000000E+02  4.910503560234738E-03  1.577513075510878E-04
 8.478000000000E+02  4.923793000966757E-03  1.586429266518742E-04
 8.478200000000E+02  4.937155518925173E-03  1.595422748899264E-04
 8.478400000000E+02  4.950591771709760E-03  1.604494429219137E-04
 8.478600000000E+02  4.964102424184863E-03  1.613645227417929E-04
 8.478800000000E+02  4.977688148594904E-03  1.622876077046968E-04
 8.479000000000E+02  4.991349624681928E-03  1.632187925513294E-04
 8.479200000000E+02  5.005087539804895E-03  1.641581734328703E-04
 8.479400000000E+02  5.018902589060958E-03  1.651058479364064E-04
 8.479600000000E+02  5.032795475408659E-03  1.660619151108930E-04
 8.479800000000E+02  5.046766909793205E-03  1.670264754936680E-04
 8.480000000000E+02  5.060817611273837E-03  1.679996311375361E-04
 8.480200000000E+02  5.074948307153186E-03  1.689814856384145E-04
 8.480400000000E+02  5.089159733108909E-03  1.699721441635859E-04
 8.480600000000E+02  5.103452633327460E-03  1.709717134805436E-04
 8.480800000000E+02  5.117827760640395E-03  1.719803019864639E-04
 8.481000000000E+02  5.132285876662469E-03  1.729980197383136E-04
 8.481200000000E+02  5.146827751932712E-03  1.740249784836053E-04
 8.481400000000E+02  5.161454166057517E-03  1.750612916918271E-04
 8.481600000000E+02  5.176165907856329E-03  1.761070745865503E-04
 8.481800000000E+02  5.190963775510094E-03  1.771624441782383E-04
 8.482000000000E+02  5.205848576711902E-03  1.782275192977829E-04
 8.482200000000E+02  5.220821128820834E-03  1.793024206307683E-04
 8.482400000000E+02  5.235882259017863E-03  1.803872707524970E-04
 8.482600000000E+02  5.251032804465269E-03  1.814821941637866E-04
 8.482800000000E+02  5.266273612468400E-03  1.825873173275661E-04
 8.483000000000E+02  5.281605540640669E-03  1.837027687062840E-04
 8.483200000000E+02  5.297029457071178E-03  1.848286788001557E-04
 8.483400000000E+02  5.312546240495888E-03  1.859651801862628E-04
 8.483600000000E+02  5.328156780471640E-03  1.871124075585375E-04
 8.483800000000E+02  5.343861977553285E-03  1.882704977686474E-04
 8.484000000000E+02  5.359662743474355E-03  1.894395898678105E-04
 8.484200000000E+02  5.375560001331096E-03  1.906198251495471E-04
 8.484400000000E+02  5.391554685769536E-03  1.918113471934246E-04
 8.484600000000E+02  5.407647743176639E-03  1.930143019097904E-04
 8.484800000000E+02  5.423840131874746E-03  1.942288375855324E-04
 8.485000000000E+02  5.440132822319648E-03  1.954551049309015E-04
 8.485200000000E+02  5.456526797302636E-03  1.966932571274038E-04
 8.485400000000E+02  5.473023052156380E-03  1.979434498768132E-04
 8.485600000000E+02  5.489622594964572E-03  1.992058414513228E-04
 8.485800000000E+02  5.506326446775840E-03  2.004805927448579E-04
 8.486000000000E+02  5.523135641821812E-03  2.017678673256043E-04
 8.486200000000E+02  5.540051227739169E-03  2.030678314897616E-04
 8.486400000000E+02  5.557074265796464E-03  2.043806543165644E-04
 8.486600000000E+02  5.574205831124920E-03  2.057065077246146E-04
 8.486800000000E+02  5.591447012954129E-03  2.070455665295366E-04
 8.487000000000E+02  5.608798914852438E-03  2.083980085030230E-04
 8.487200000000E+02  5.626262654971731E-03  2.097640144332786E-04
 8.487400000000E+02  5.643839366297613E-03  2.111437681869194E-04
 8.487600000000E+02  5.661530196904231E-03  2.125374567723668E-04
 8.487800000000E+02  5.679336310214412E-03  2.139452704047663E-04
 8.488000000000E+02  5.697258885265055E-03  2.153674025724842E-04
 8.488200000000E+02  5.715299116977787E-03  2.168040501052219E-04
 8.488400000000E+02  5.733458216435351E-03  2.182554132437962E-04
 8.488600000000E+02  5.751737411163419E-03  2.197216957116250E-04
 8.488800000000E+02  5.770137945418458E-03  2.212031047879730E-04
 8.489000000000E+02  5.788661080481243E-03  2.226998513830089E-04
 8.489200000000E+02  5.807308094956692E-03  2.242121501147173E-04
 8.489400000000E+02  5.826080285079925E-03  2.257402193877286E-04
