#Spectra: 1
Emin______Emax       8.430000000000000E+02  8.830000000000000E+02
EminPole__EmaxPole   8.541613352168589E+02  8.747854484210163E+02
dE________Gamma      2.000000000000000E-02  1.000000000000000E-01
Energy               Re[0]                  Im[0]                
 8.430000000000E+02  1.624462970748243E-03  5.195263616424666E-05
 8.430200000000E+02  1.727310018657080E-03  5.252142193890421E-05
 8.430400000000E+02  1.827148141019966E-03  5.307988433575606E-05
 8.430600000000E+02  1.922279105998632E-03  5.362131255099662E-05
 8.430800000000E+02  2.011513141599632E-03  5.414098991657243E-05
 8.431000000000E+02  2.094186766718145E-03  5.463626769149491E-05
 8.431200000000E+02  2.170092684503722E-03  5.510629207850027E-05
 8.431400000000E+02  2.239366858487625E-03  5.555156186084904E-05
 8.431600000000E+02  2.302371231666301E-03  5.597346808748270E-05
 8.431800000000E+02  2.359594435670863E-03  5.637390393230890E-05
 8.432000000000E+02  2.411578233752895E-03  5.675497539676885E-05
 8.432200000000E+02  2.458868489050649E-03  5.711880826206981E-05
 8.432400000000E+02  2.501985659619161E-03  5.746743173849400E-05
 8.432600000000E+02  2.541409212270960E-03  5.780271682132166E-05
 8.432800000000E+02  2.577571177037250E-03  5.812635059832707E-05
 8.433000000000E+02  2.610855281898924E-03  5.843983252572249E-05
 8.433200000000E+02  2.641599227771445E-03  5.874448308491141E-05
 8.433400000000E+02  2.670098531094438E-03  5.904145863755612E-05
 8.433600000000E+02  2.696610972933075E-03  5.933176869831703E-05
 8.433800000000E+02  2.721361099334149E-03  5.961629343907992E-05
 8.434000000000E+02  2.744544475113176E-03  5.989580025025089E-05
 8.434200000000E+02  2.766331550284272E-03  6.017095880216176E-05
 8.434400000000E+02  2.786871090336287E-03  6.044235441154884E-05
 8.434600000000E+02  2.806293172777523E-03  6.071049971978711E-05
 8.434800000000E+02  2.824711778763516E-03  6.097584479367453E-05
 8.435000000000E+02  2.842227020341094E-03  6.123878580597853E-05
 8.435200000000E+02  2.858927047200357E-03  6.149967246647208E-05
 8.435400000000E+02  2.874889675664468E-03  6.175881436989273E-05
 8.435600000000E+02  2.890183779252143E-03  6.201648641415240E-05
 8.435800000000E+02  2.904870475838370E-03  6.227293342537943E-05
 8.436000000000E+02  2.919004141956393E-03  6.252837410893268E-05
 8.436200000000E+02  2.932633280513264E-03  6.278300442888225E-05
 8.436400000000E+02  2.945801264314831E-03  6.303700050332366E-05
 8.436600000000E+02  2.958546974381176E-03  6.329052108958878E-05
 8.436800000000E+02  2.970905349078056E-03  6.354370972186389E-05
 8.437000000000E+02  2.982907857567918E-03  6.379669655390211E-05
 8.437200000000E+02  2.994582908946246E-03  6.404959995115790E-05
 8.437400000000E+02  3.005956206628571E-03  6.430252786965326E-05
 8.437600000000E+02  3.017051056041866E-03  6.455557905298802E-05
 8.437800000000E+02  3.027888632408263E-03  6.480884407395299E-05
 8.438000000000E+02  3.038488214348436E-03  6.506240624308801E-05
 8.438200000000E+02  3.048867388145996E-03  6.531634240304604E-05
 8.438400000000E+02  3.059042226771350E-03  6.557072362474603E-05
 8.438600000000E+02  3.069027447142009E-03  6.582561581885515E-05
 8.438800000000E+02  3.078836548574449E-03  6.608108027412679E-05
 8.439000000000E+02  3.088481934944811E-03  6.633717413238581E-05
 8.439200000000E+02  3.097975022706802E-03  6.659395080854327E-05
 8.439400000000E+02  3.107326336604919E-03  6.685146036278518E-05
 8.439600000000E+02  3.116545594658500E-03  6.710974983108257E-05
 8.439800000000E+02  3.125641783770175E-03  6.736886351928166E-05
 8.440000000000E+02  3.134623227124582E-03  6.762884326531677E-05
 8.440200000000E+02  3.143497644382674E-03  6.788972867345826E-05
 8.440400000000E+02  3.152272205541476E-03  6.815155732397845E-05
 8.440600000000E+02  3.160953579212858E-03  6.841436496116541E-05
 8.440800000000E+02  3.169547975975645E-03  6.867818566223387E-05
 8.441000000000E+02  3.178061187370219E-03  6.894305198934407E-05
 8.441200000000E+02  3.186498621032399E-03  6.920899512665493E-05
 8.441400000000E+02  3.194865332399763E-03  6.947604500410585E-05
 8.441600000000E+02  3.203166053370257E-03  6.974423040939437E-05
 8.441800000000E+02  3.211405218245729E-03  7.001357908944676E-05
 8.442000000000E+02  3.219586987252792E-03  7.028411784251330E-05
 8.442200000000E+02  3.227715267898401E-03  7.055587260189469E-05
 8.442400000000E+02  3.235793734386914E-03  7.082886851217661E-05
 8.442600000000E+02  3.243825845299161E-03  7.110312999874491E-05
 8.442800000000E+02  3.251814859710637E-03  7.137868083128291E-05
 8.443000000000E+02  3.259763851906098E-03  7.165554418184843E-05
 8.443200000000E+02  3.267675724829883E-03  7.193374267807970E-05
 8.443400000000E+02  3.275553222396000E-03  7.221329845200418E-05
 8.443600000000E+02  3.283398940768333E-03  7.249423318488750E-05
 8.443800000000E+02  3.291215338709472E-03  7.277656814849727E-05
 8.444000000000E+02  3.299004747086029E-03  7.306032424312292E-05
 8.444200000000E+02  3.306769377609061E-03  7.334552203266525E-05
 8.444400000000E+02  3.314511330880156E-03  7.363218177705374E-05
 8.444600000000E+02  3.322232603806113E-03  7.392032346225578E-05
 8.444800000000E+02  3.329935096439220E-03  7.420996682807847E-05
 8.445000000000E+02  3.337620618294041E-03  7.450113139397377E-05
 8.445200000000E+02  3.345290894186407E-03  7.479383648302320E-05
 8.445400000000E+02  3.352947569636634E-03  7.508810124425720E-05
 8.445600000000E+02  3.360592215873601E-03  7.538394467345970E-05
 8.445800000000E+02  3.368226334474192E-03  7.568138563258801E-05
 8.446000000000E+02  3.375851361668142E-03  7.598044286792402E-05
 8.446200000000E+02  3.383468672336399E-03  7.628113502706693E-05
 8.446400000000E+02  3.391079583727760E-03  7.658348067486555E-05
 8.446600000000E+02  3.398685358917001E-03  7.688749830837511E-05
 8.446800000000E+02  3.406287210024877E-03  7.719320637092215E-05
 8.447000000000E+02  3.413886301219096E-03  7.750062326535185E-05
 8.447200000000E+02  3.421483751513379E-03  7.780976736652028E-05
 8.447400000000E+02  3.429080637380243E-03  7.812065703309657E-05
 8.447600000000E+02  3.436677995191937E-03  7.843331061872943E-05
 8.447800000000E+02  3.444276823502553E-03  7.874774648262753E-05
 8.448000000000E+02  3.451878085183053E-03  7.906398299960329E-05
 8.448200000000E+02  3.459482709420626E-03  7.938203856961851E-05
 8.448400000000E+02  3.467091593591940E-03  7.970193162687603E-05
 8.448600000000E+02  3.474705605019726E-03  8.002368064848997E-05
 8.448800000000E+02  3.482325582621132E-03  8.034730416276685E-05
 8.449000000000E+02  3.489952338455461E-03  8.067282075713056E-05
 8.449200000000E+02  3.497586659178638E-03  8.100024908572105E-05
 8.449400000000E+02  3.505229307410685E-03  8.132960787668327E-05
 8.449600000000E+02  3.512881023022686E-03  8.166091593918245E-05
 8.449800000000E+02  3.520542524348177E-03  8.199419217015873E-05
 8.450000000000E+02  3.528214509324786E-03  8.232945556084534E-05
 8.450200000000E+02  3.535897656570370E-03  8.266672520306777E-05
 8.450400000000E+02  3.543592626398257E-03  8.300602029534194E-05
 8.450600000000E+02  3.551300061775627E-03  8.334736014878886E-05
 8.450800000000E+02  3.559020589228709E-03  8.369076419287578E-05
 8.451000000000E+02  3.566754819698342E-03  8.403625198100832E-05
 8.451200000000E+02  3.574503349349056E-03  8.438384319596963E-05
 8.451400000000E+02  3.582266760334755E-03  8.473355765523787E-05
 8.451600000000E+02  3.590045621523700E-03  8.508541531617994E-05
 8.451800000000E+02  3.597840489185253E-03  8.543943628113444E-05
 8.452000000000E+02  3.605651907641074E-03  8.579564080239947E-05
 8.452200000000E+02  3.613480409882707E-03  8.615404928712802E-05
 8.452400000000E+02  3.621326518157675E-03  8.651468230214141E-05
 8.452600000000E+02  3.629190744526237E-03  8.687756057866933E-05
 8.452800000000E+02  3.637073591390249E-03  8.724270501702641E-05
 8.453000000000E+02  3.644975551995983E-03  8.761013669122646E-05
 8.453200000000E+02  3.652897110912619E-03  8.797987685354905E-05
 8.453400000000E+02  3.660838744487547E-03  8.835194693905555E-05
 8.453600000000E+02  3.668800921280021E-03  8.872636857006850E-05
 8.453800000000E+02  3.676784102474391E-03  8.910316356061738E-05
 8.454000000000E+02  3.684788742274231E-03  8.948235392085182E-05
 8.454200000000E+02  3.692815288278200E-03  8.986396186143737E-05
 8.454400000000E+02  3.700864181838919E-03  9.024800979792504E-05
 8.454600000000E+02  3.708935858405739E-03  9.063452035511230E-05
 8.454800000000E+02  3.717030747852317E-03  9.102351637139268E-05
 8.455000000000E+02  3.725149274789836E-03  9.141502090309504E-05
 8.455200000000E+02  3.733291858866810E-03  9.180905722882862E-05
 8.455400000000E+02  3.741458915055912E-03  9.220564885382388E-05
 8.455600000000E+02  3.749650853928963E-03  9.260481951428148E-05
 8.455800000000E+02  3.757868081920296E-03  9.300659318172922E-05
 8.456000000000E+02  3.766111001579587E-03  9.341099406739170E-05
 8.456200000000E+02  3.774380011814274E-03  9.381804662657688E-05
 8.456400000000E+02  3.782675508122416E-03  9.422777556307537E-05
 8.456600000000E+02  3.790997882816517E-03  9.464020583359279E-05
 8.456800000000E+02  3.799347525238571E-03  9.505536265219377E-05
 8.457000000000E+02  3.807724821967086E-03  9.547327149478225E-05
 8.457200000000E+02  3.816130157016262E-03  9.589395810360712E-05
 8.457400000000E+02  3.824563912027931E-03  9.631744849180513E-05
 8.457600000000E+02  3.833026466456570E-03  9.674376894797279E-05
 8.457800000000E+02  3.841518197747593E-03  9.717294604078209E-05
 8.458000000000E+02  3.850039481509643E-03  9.760500662363473E-05
 8.458200000000E+02  3.858590691680905E-03  9.803997783935756E-05
 8.458400000000E+02  3.867172200689781E-03  9.847788712494561E-05
 8.458600000000E+02  3.875784379610293E-03  9.891876221635026E-05
 8.458800000000E+02  3.884427598312547E-03  9.936263115332054E-05
 8.459000000000E+02  3.893102225608401E-03  9.980952228429461E-05
 8.459200000000E+02  3.901808629392539E-03  1.002594642713441E-04
 8.459400000000E+02  3.910547176779500E-03  1.007124860951803E-04
 8.459600000000E+02  3.919318234236407E-03  1.011686170602141E-04
 8.459800000000E+02  3.928122167712046E-03  1.016278867996805E-04
 8.460000000000E+02  3.936959342762222E-03  1.020903252808240E-04
 8.460200000000E+02  3.945830124671728E-03  1.025559628101526E-04
 8.460400000000E+02  3.954734878573015E-03  1.030248300387582E-04
 8.460600000000E+02  3.963673969561866E-03  1.034969579677050E-04
 8.460800000000E+02  3.972647762809979E-03  1.039723779534929E-04
 8.461000000000E+02  3.981656623674897E-03  1.044511217135970E-04
 8.461200000000E+02  3.990700917807456E-03  1.049332213320772E-04
 8.461400000000E+02  3.999781011256424E-03  1.054187092652742E-04
 8.461600000000E+02  4.008897270571188E-03  1.059076183475802E-04
 8.461800000000E+02  4.018050062901850E-03  1.063999817972996E-04
 8.462000000000E+02  4.027239756097604E-03  1.068958332225868E-04
 8.462200000000E+02  4.036466718802874E-03  1.073952066274820E-04
 8.462400000000E+02  4.045731320551800E-03  1.078981364180269E-04
 8.462600000000E+02  4.055033931860640E-03  1.084046574084818E-04
 8.462800000000E+02  4.064374924319121E-03  1.089148048276308E-04
 8.463000000000E+02  4.073754670679556E-03  1.094286143251897E-04
 8.463200000000E+02  4.083173544945062E-03  1.099461219783084E-04
 8.463400000000E+02  4.092631922456095E-03  1.104673642981788E-04
 8.463600000000E+02  4.102130179975894E-03  1.109923782367466E-04
 8.463800000000E+02  4.111668695774540E-03  1.115212011935293E-04
 8.464000000000E+02  4.121247849712126E-03  1.120538710225441E-04
 8.464200000000E+02  4.130868023320726E-03  1.125904260393491E-04
 8.464400000000E+02  4.140529599885547E-03  1.131309050281962E-04
 8.464600000000E+02  4.150232964525065E-03  1.136753472493053E-04
 8.464800000000E+02  4.159978504270396E-03  1.142237924462549E-04
 8.465000000000E+02  4.169766608143949E-03  1.147762808534994E-04
 8.465200000000E+02  4.179597667237273E-03  1.153328532040086E-04
 8.465400000000E+02  4.189472074788524E-03  1.158935507370364E-04
 8.465600000000E+02  4.199390226258969E-03  1.164584152060233E-04
 8.465800000000E+02  4.209352519409505E-03  1.170274888866303E-04
 8.466000000000E+02  4.219359354376151E-03  1.176008145849124E-04
 8.466200000000E+02  4.229411133745633E-03  1.181784356456297E-04
 8.466400000000E+02  4.239508262630325E-03  1.187603959607064E-04
 8.466600000000E+02  4.249651148742963E-03  1.193467399778303E-04
 8.466800000000E+02  4.259840202471244E-03  1.199375127092114E-04
 8.467000000000E+02  4.270075836951972E-03  1.205327597404824E-04
 8.467200000000E+02  4.280358468145397E-03  1.211325272397656E-04
 8.467400000000E+02  4.290688514909061E-03  1.217368619668967E-04
 8.467600000000E+02  4.301066399071868E-03  1.223458112828095E-04
 8.467800000000E+02  4.311492545508076E-03  1.229594231590917E-04
 8.468000000000E+02  4.321967382211314E-03  1.235777461877109E-04
 8.468200000000E+02  4.332491340368493E-03  1.242008295909128E-04
 8.468400000000E+02  4.343064854434154E-03  1.248287232313033E-04
 8.468600000000E+02  4.353688362204711E-03  1.254614776221062E-04
 8.468800000000E+02  4.364362304892986E-03  1.260991439376153E-04
 8.469000000000E+02  4.375087127202889E-03  1.267417740238296E-04
 8.469200000000E+02  4.385863277404530E-03  1.273894204092877E-04
 8.469400000000E+02  4.396691207409491E-03  1.280421363161059E-04
 8.469600000000E+02  4.407571372846419E-03  1.286999756712050E-04
 8.469800000000E+02  4.418504233137163E-03  1.293629931177633E-04
 8.470000000000E+02  4.429490251573106E-03  1.300312440268726E-04
 8.470200000000E+02  4.440529895392221E-03  1.307047845094113E-04
 8.470400000000E+02  4.451623635856295E-03  1.313836714281413E-04
 8.470600000000E+02  4.462771948328911E-03  1.320679624100342E-04
 8.470800000000E+02  4.473975312353873E-03  1.327577158588302E-04
 8.471000000000E+02  4.485234211734371E-03  1.334529909678300E-04
 8.471200000000E+02  4.496549134612462E-03  1.341538477329312E-04
 8.471400000000E+02  4.507920573549557E-03  1.348603469659160E-04
 8.471600000000E+02  4.519349025607472E-03  1.355725503079905E-04
 8.471800000000E+02  4.530834992430022E-03  1.362905202435832E-04
 8.472000000000E+02  4.542378980325655E-03  1.370143201144086E-04
 8.472200000000E+02  4.553981500350828E-03  1.377440141338064E-04
 8.472400000000E+02  4.565643068394048E-03  1.384796674013502E-04
 8.472600000000E+02  4.577364205260863E-03  1.392213459177481E-04
 8.472800000000E+02  4.589145436759953E-03  1.399691166000292E-04
 8.473000000000E+02  4.600987293789749E-03  1.407230472970252E-04
 8.473200000000E+02  4.612890312426396E-03  1.414832068051655E-04
 8.473400000000E+02  4.624855034012536E-03  1.422496648845671E-04
 8.473600000000E+02  4.636882005247200E-03  1.430224922754562E-04
 8.473800000000E+02  4.648971778276555E-03  1.438017607149088E-04
 8.474000000000E+02  4.661124910786257E-03  1.445875429539236E-04
 8.474200000000E+02  4.673341966094403E-03  1.453799127748363E-04
 8.474400000000E+02  4.685623513245848E-03  1.461789450090810E-04
 8.474600000000E+02  4.697970127108003E-03  1.469847155553105E-04
 8.474800000000E+02  4.710382388467565E-03  1.477973013978763E-04
 8.475000000000E+02  4.722860884128571E-03  1.486167806256840E-04
 8.475200000000E+02  4.735406207011917E-03  1.494432324514327E-04
 8.475400000000E+02  4.748018956256228E-03  1.502767372312433E-04
 8.475600000000E+02  4.760699737319994E-03  1.511173764846809E-04
 8.475800000000E+02  4.773449162085303E-03  1.519652329151974E-04
 8.476000000000E+02  4.786267848962933E-03  1.528203904309829E-04
 8.476200000000E+02  4.799156422999154E-03  1.536829341662534E-04
 8.476400000000E+02  4.812115515983783E-03  1.545529505029697E-04
 8.476600000000E+02  4.825145766560263E-03  1.554305270930166E-04
 8.476800000000E+02  4.838247820336941E-03  1.563157528808292E-04
 8.477000000000E+02  4.851422330000419E-03  1.572087181265019E-04
 8.477200000000E+02  4.864669955430467E-03  1.581095144293734E-04
 8.477400000000E+02  4.877991363816531E-03  1.590182347521069E-04
 8.477600000000E+02  4.891387229776696E-03  1.599349734452795E-04
 8.477800000000E+02  4.904858235477537E-03  1.608598262724875E-04
 8.478000000000E+02  4.918405070756879E-03  1.617928904359807E-04
 8.478200000000E+02  4.932028433247831E-03  1.627342646028449E-04
 8.478400000000E+02  4.945729028505258E-03  1.636840489317406E-04
 8.478600000000E+02  4.959507570133993E-03  1.646423451002102E-04
 8.478800000000E+02  4.973364779919357E-03  1.656092563325726E-04
 8.479000000000E+02  4.987301387959876E-03  1.665848874284179E-04
 8.479200000000E+02  5.001318132801943E-03  1.675693447917142E-04
 8.479400000000E+02  5.015415761577196E-03  1.685627364605438E-04
 8.479600000000E+02  5.029595030141778E-03  1.695651721374873E-04
 8.479800000000E+02  5.043856703218254E-03  1.705767632206687E-04
 8.480000000000E+02  5.058201554539819E-03  1.715976228354747E-04
 8.480200000000E+02  5.072630366997086E-03  1.726278658669744E-04
 8.480400000000E+02  5.087143932787502E-03  1.736676089930463E-04
 8.480600000000E+02  5.101743053567137E-03  1.747169707182411E-04
 8.480800000000E+02  5.116428540605423E-03  1.757760714083893E-04
 8.481000000000E+02  5.131201214942452E-03  1.768450333259793E-04
 8.481200000000E+02  5.146061907549117E-03  1.779239806663218E-04
 8.481400000000E+02  5.161011459490291E-03  1.790130395945255E-04
 8.481600000000E+02  5.176050722090670E-03  1.801123382832974E-04
 8.481800000000E+02  5.191180557103841E-03  1.812220069515950E-04
 8.482000000000E+02  5.206401836884419E-03  1.823421779041526E-04
 8.482200000000E+02  5.221715444563163E-03  1.834729855718963E-04
 8.482400000000E+02  5.237122274225541E-03  1.846145665532867E-04
 8.482600000000E+02  5.252623231093533E-03  1.857670596565982E-04
 8.482800000000E+02  5.268219231710737E-03  1.869306059431588E-04
 8.483000000000E+02  5.283911204131116E-03  1.881053487715952E-04
 8.483200000000E+02  5.299700088111053E-03  1.892914338430879E-04
 8.483400000000E+02  5.315586835305285E-03  1.904890092476709E-04
 8.483600000000E+02  5.331572409466449E-03  1.916982255116116E-04
 8.483800000000E+02  5.347657786648432E-03  1.929192356458831E-04
 8.484000000000E+02  5.363843955413576E-03  1.941521951957767E-04
 8.484200000000E+02  5.380131917044054E-03  1.953972622916670E-04
 8.484400000000E+02  5.396522685757161E-03  1.966545977009807E-04
 8.484600000000E+02  5.413017288924868E-03  1.979243648813772E-04
 8.484800000000E+02  5.429616767297699E-03  1.992067300351998E-04
 8.485000000000E+02  5.446322175232826E-03  2.005018621652117E-04
 8.485200000000E+02  5.463134580927073E-03  2.018099331316596E-04
 8.485400000000E+02  5.480055066653925E-03  2.031311177107120E-04
 8.485600000000E+02  5.497084729005861E-03  2.044655936542789E-04
 8.485800000000E+02  5.514224679141193E-03  2.058135417512955E-04
 8.486000000000E+02  5.531476043035822E-03  2.071751458904628E-04
 8.486200000000E+02  5.548839961740246E-03  2.085505931245299E-04
 8.486400000000E+02  5.566317591641764E-03  2.099400737361265E-04
 8.486600000000E+02  5.583910104731750E-03  2.113437813052057E-04
 8.486800000000E+02  5.601618688878870E-03  2.127619127781419E-04
 8.487000000000E+02  5.619444548107227E-03  2.141946685385259E-04
 8.487200000000E+02  5.637388902880958E-03  2.156422524797057E-04
 8.487400000000E+02  5.655452990394178E-03  2.171048720791269E-04
 8.487600000000E+02  5.673638064867093E-03  2.185827384745154E-04
 8.487800000000E+02  5.691945397848496E-03  2.200760665419672E-04
 8.488000000000E+02  5.710376278524207E-03  2.215850749759882E-04
 8.488200000000E+02  5.728932014032362E-03  2.231099863715465E-04
 8.488400000000E+02  5.747613929785069E-03  2.246510273081935E-04
 8.488600000000E+02  5.766423369797141E-03  2.262084284363168E-04
 8.488800000000E+02  5.785361697021550E-03  2.277824245655785E-04
 8.489000000000E+02  5.804430293692155E-03  2.293732547556146E-04
 8.489200000000E+02  5.823630561674069E-03  2.309811624090536E-04
 8.489400000000E+02  5.842963922820936E-03  2.326063953669216E-04
