#Spectra: 1
Emin______Emax       8.430000000000000E+02  8.830000000000000E+02
EminPole__EmaxPole   8.545887847316088E+02  8.772224584177965E+02
dE________Gamma      2.000000000000000E-02  1.000000000000000E-01
Energy               Re[0]                  Im[0]                
 8.430000000000E+02  1.390161761553237E-03  4.306798307640175E-05
 8.430200000000E+02  1.478174190810767E-03  4.353534191885423E-05
 8.430400000000E+02  1.563604678729240E-03  4.399406794200084E-05
 8.430600000000E+02  1.644998808752121E-03  4.443859733901086E-05
 8.430800000000E+02  1.721337730521924E-03  4.486502023035845E-05
 8.431000000000E+02  1.792053410363073E-03  4.527114168837979E-05
 8.431200000000E+02  1.856968562903846E-03  4.565625523571329E-05
 8.431400000000E+02  1.916199912973872E-03  4.602077592784911E-05
 8.431600000000E+02  1.970057730524578E-03  4.636585858634209E-05
 8.431800000000E+02  2.018960778940071E-03  4.669307425155520E-05
 8.432000000000E+02  2.063373308430854E-03  4.700417027801176E-05
 8.432200000000E+02  2.103763058313916E-03  4.730091025574546E-05
 8.432400000000E+02  2.140575985937795E-03  4.758497753849774E-05
 8.432600000000E+02  2.174222918245269E-03  4.785792413985302E-05
 8.432800000000E+02  2.205074032891108E-03  4.812114944270087E-05
 8.433000000000E+02  2.233458119107743E-03  4.837589712540938E-05
 8.433200000000E+02  2.259664528222145E-03  4.862326235361390E-05
 8.433400000000E+02  2.283946466725438E-03  4.886420411056305E-05
 8.433600000000E+02  2.306524808658090E-03  4.909955953090244E-05
 8.433800000000E+02  2.327591951709723E-03  4.933005842507389E-05
 8.434000000000E+02  2.347315461946464E-03  4.955633702056358E-05
 8.434200000000E+02  2.365841386592211E-03  4.977895045828004E-05
 8.434400000000E+02  2.383297193085038E-03  4.999838388246656E-05
 8.434600000000E+02  2.399794336502249E-03  5.021506212981550E-05
 8.434800000000E+02  2.415430480051375E-03  5.042935810977826E-05
 8.435000000000E+02  2.430291403360383E-03  5.064160000654230E-05
 8.435200000000E+02  2.444452636175275E-03  5.085207744433309E-05
 8.435400000000E+02  2.457980854076706E-03  5.106104675414217E-05
 8.435600000000E+02  2.470935069916760E-03  5.126873546907981E-05
 8.435800000000E+02  2.483367650985556E-03  5.147534616167925E-05
 8.436000000000E+02  2.495325188075690E-03  5.168105972198693E-05
 8.436200000000E+02  2.506849238954089E-03  5.188603816147586E-05
 8.436400000000E+02  2.517976965429328E-03  5.209042701526454E-05
 8.436600000000E+02  2.528741680276403E-03  5.229435740408216E-05
 8.436800000000E+02  2.539173317749535E-03  5.249794780784735E-05
 8.437000000000E+02  2.549298839252313E-03  5.270130559456491E-05
 8.437200000000E+02  2.559142583902945E-03  5.290452834132060E-05
 8.437400000000E+02  2.568726572189949E-03  5.310770497832732E-05
 8.437600000000E+02  2.578070769618928E-03  5.331091678207937E-05
 8.437800000000E+02  2.587193316165372E-03  5.351423823957699E-05
 8.438000000000E+02  2.596110726441645E-03  5.371773780214100E-05
 8.438200000000E+02  2.604838064725155E-03  5.392147854448411E-05
 8.438400000000E+02  2.613389098359992E-03  5.412551874228465E-05
 8.438600000000E+02  2.621776432510623E-03  5.432991237950706E-05
 8.438800000000E+02  2.630011628799870E-03  5.453470959502450E-05
 8.439000000000E+02  2.638105309987715E-03  5.473995707667547E-05
 8.439200000000E+02  2.646067252532064E-03  5.494569840970035E-05
 8.439400000000E+02  2.653906468605848E-03  5.515197438549806E-05
 8.439600000000E+02  2.661631278920959E-03  5.535882327578506E-05
 8.439800000000E+02  2.669249377518499E-03  5.556628107654111E-05
 8.440000000000E+02  2.676767889524051E-03  5.577438172549422E-05
 8.440200000000E+02  2.684193422729970E-03  5.598315729639980E-05
 8.440400000000E+02  2.691532113749466E-03  5.619263817291696E-05
 8.440600000000E+02  2.698789669388505E-03  5.640285320451812E-05
 8.440800000000E+02  2.705971403795879E-03  5.661382984653868E-05
 8.441000000000E+02  2.713082271879585E-03  5.682559428620902E-05
 8.441200000000E+02  2.720126899414582E-03  5.703817155626577E-05
 8.441400000000E+02  2.727109610213672E-03  5.725158563754418E-05
 8.441600000000E+02  2.734034450686591E-03  5.746585955177273E-05
 8.441800000000E+02  2.740905212072461E-03  5.768101544564629E-05
 8.442000000000E+02  2.747725450596262E-03  5.789707466711503E-05
 8.442200000000E+02  2.754498505769636E-03  5.811405783472654E-05
 8.442400000000E+02  2.761227517030627E-03  5.833198490074395E-05
 8.442600000000E+02  2.767915438893820E-03  5.855087520869058E-05
 8.442800000000E+02  2.774565054763202E-03  5.877074754589179E-05
 8.443000000000E+02  2.781178989541769E-03  5.899162019151950E-05
 8.443200000000E+02  2.787759721157980E-03  5.921351096058648E-05
 8.443400000000E+02  2.794309591114947E-03  5.943643724429481E-05
 8.443600000000E+02  2.800830814156922E-03  5.966041604708781E-05
 8.443800000000E+02  2.807325487137817E-03  5.988546402072725E-05
 8.444000000000E+02  2.813795597166580E-03  6.011159749567615E-05
 8.444200000000E+02  2.820243029097182E-03  6.033883251004136E-05
 8.444400000000E+02  2.826669572423472E-03  6.056718483630211E-05
 8.444600000000E+02  2.833076927633031E-03  6.079667000602799E-05
 8.444800000000E+02  2.839466712068468E-03  6.102730333277020E-05
 8.445000000000E+02  2.845840465340300E-03  6.125909993328580E-05
 8.445200000000E+02  2.852199654330288E-03  6.149207474725019E-05
 8.445400000000E+02  2.858545677821039E-03  6.172624255558415E-05
 8.445600000000E+02  2.864879870783976E-03  6.196161799751815E-05
 8.445800000000E+02  2.871203508354296E-03  6.219821558650696E-05
 8.446000000000E+02  2.877517809519402E-03  6.243604972508312E-05
 8.446200000000E+02  2.883823940544594E-03  6.267513471874935E-05
 8.446400000000E+02  2.890123018157326E-03  6.291548478898408E-05
 8.446600000000E+02  2.896416112509713E-03  6.315711408543526E-05
 8.446800000000E+02  2.902704249937121E-03  6.340003669736861E-05
 8.447000000000E+02  2.908988415528912E-03  6.364426666443431E-05
 8.447200000000E+02  2.915269555526085E-03  6.388981798680184E-05
 8.447400000000E+02  2.921548579559348E-03  6.413670463471903E-05
 8.447600000000E+02  2.927826362739752E-03  6.438494055753827E-05
 8.447800000000E+02  2.934103747613142E-03  6.463453969225283E-05
 8.448000000000E+02  2.940381545988776E-03  6.488551597158149E-05
 8.448200000000E+02  2.946660540651301E-03  6.513788333163948E-05
 8.448400000000E+02  2.952941486964814E-03  6.539165571922272E-05
 8.448600000000E+02  2.959225114376884E-03  6.564684709874049E-05
 8.448800000000E+02  2.965512127829685E-03  6.590347145882154E-05
 8.449000000000E+02  2.971803209084903E-03  6.616154281861858E-05
 8.449200000000E+02  2.978099017968804E-03  6.642107523383386E-05
 8.449400000000E+02  2.984400193542549E-03  6.668208280249061E-05
 8.449600000000E+02  2.990707355203318E-03  6.694457967046297E-05
 8.449800000000E+02  2.997021103721121E-03  6.720858003679237E-05
 8.450000000000E+02  3.003342022215302E-03  6.747409815879694E-05
 8.450200000000E+02  3.009670677075080E-03  6.774114835699538E-05
 8.450400000000E+02  3.016007618827896E-03  6.800974501986246E-05
 8.450600000000E+02  3.022353382958832E-03  6.827990260841950E-05
 8.450800000000E+02  3.028708490684584E-03  6.855163566068165E-05
 8.451000000000E+02  3.035073449684723E-03  6.882495879597064E-05
 8.451200000000E+02  3.041448754793224E-03  6.909988671910005E-05
 8.451400000000E+02  3.047834888652529E-03  6.937643422444868E-05
 8.451600000000E+02  3.054232322332916E-03  6.965461619992695E-05
 8.451800000000E+02  3.060641515918978E-03  6.993444763084886E-05
 8.452000000000E+02  3.067062919065575E-03  7.021594360371026E-05
 8.452200000000E+02  3.073496971524836E-03  7.049911930989260E-05
 8.452400000000E+02  3.079944103646487E-03  7.078399004928676E-05
 8.452600000000E+02  3.086404736852449E-03  7.107057123385257E-05
 8.452800000000E+02  3.092879284087996E-03  7.135887839111554E-05
 8.453000000000E+02  3.099368150250269E-03  7.164892716760837E-05
 8.453200000000E+02  3.105871732595987E-03  7.194073333226272E-05
 8.453400000000E+02  3.112390421129100E-03  7.223431277975288E-05
 8.453600000000E+02  3.118924598970117E-03  7.252968153380501E-05
 8.453800000000E+02  3.125474642707677E-03  7.282685575046326E-05
 8.454000000000E+02  3.132040922733701E-03  7.312585172133105E-05
 8.454200000000E+02  3.138623803562932E-03  7.342668587678013E-05
 8.454400000000E+02  3.145223644137841E-03  7.372937478913881E-05
 8.454600000000E+02  3.151840798119628E-03  7.403393517585719E-05
 8.454800000000E+02  3.158475614166270E-03  7.434038390266100E-05
 8.455000000000E+02  3.165128436198105E-03  7.464873798668490E-05
 8.455200000000E+02  3.171799603651805E-03  7.495901459960307E-05
 8.455400000000E+02  3.178489451723514E-03  7.527123107074597E-05
 8.455600000000E+02  3.185198311601302E-03  7.558540489021694E-05
 8.455800000000E+02  3.191926510688049E-03  7.590155371200681E-05
 8.456000000000E+02  3.198674372814918E-03  7.621969535710559E-05
 8.456200000000E+02  3.205442218446061E-03  7.653984781662209E-05
 8.456400000000E+02  3.212230364875010E-03  7.686202925490694E-05
 8.456600000000E+02  3.219039126413182E-03  7.718625801268433E-05
 8.456800000000E+02  3.225868814571021E-03  7.751255261019382E-05
 8.457000000000E+02  3.232719738231975E-03  7.784093175034177E-05
 8.457200000000E+02  3.239592203819773E-03  7.817141432187430E-05
 8.457400000000E+02  3.246486515459555E-03  7.850401940255780E-05
 8.457600000000E+02  3.253402975132792E-03  7.883876626238454E-05
 8.457800000000E+02  3.260341882826603E-03  7.917567436679494E-05
 8.458000000000E+02  3.267303536677766E-03  7.951476337992381E-05
 8.458200000000E+02  3.274288233111408E-03  7.985605316786879E-05
 8.458400000000E+02  3.281296266975092E-03  8.019956380198493E-05
 8.458600000000E+02  3.288327931668062E-03  8.054531556220775E-05
 8.458800000000E+02  3.295383519266400E-03  8.089332894040370E-05
 8.459000000000E+02  3.302463320643728E-03  8.124362464375155E-05
 8.459200000000E+02  3.309567625588265E-03  8.159622359815595E-05
 8.459400000000E+02  3.316696722916008E-03  8.195114695169639E-05
 8.459600000000E+02  3.323850900580395E-03  8.230841607810871E-05
 8.459800000000E+02  3.331030445778621E-03  8.266805258030579E-05
 8.460000000000E+02  3.338235645054795E-03  8.303007829393473E-05
 8.460200000000E+02  3.345466784400098E-03  8.339451529097763E-05
 8.460400000000E+02  3.352724149349901E-03  8.376138588338835E-05
 8.460600000000E+02  3.360008025078456E-03  8.413071262677775E-05
 8.460800000000E+02  3.367318696490715E-03  8.450251832413855E-05
 8.461000000000E+02  3.374656448311925E-03  8.487682602962193E-05
 8.461200000000E+02  3.382021565174738E-03  8.525365905235413E-05
 8.461400000000E+02  3.389414331704213E-03  8.563304096030917E-05
 8.461600000000E+02  3.396835032600740E-03  8.601499558422771E-05
 8.461800000000E+02  3.404283952720900E-03  8.639954702158798E-05
 8.462000000000E+02  3.411761377156492E-03  8.678671964063381E-05
 8.462200000000E+02  3.419267591311911E-03  8.717653808445166E-05
 8.462400000000E+02  3.426802880979585E-03  8.756902727510964E-05
 8.462600000000E+02  3.434367532414075E-03  8.796421241785105E-05
 8.462800000000E+02  3.441961832404554E-03  8.836211900534862E-05
 8.463000000000E+02  3.449586068345815E-03  8.876277282201904E-05
 8.463200000000E+02  3.457240528308071E-03  8.916619994840106E-05
 8.463400000000E+02  3.464925501105445E-03  8.957242676559735E-05
 8.463600000000E+02  3.472641276363180E-03  8.998147995978053E-05
 8.463800000000E+02  3.480388144583813E-03  9.039338652676878E-05
 8.464000000000E+02  3.488166397212311E-03  9.080817377666961E-05
 8.464200000000E+02  3.495976326700167E-03  9.122586933859229E-05
 8.464400000000E+02  3.503818226568508E-03  9.164650116543575E-05
 8.464600000000E+02  3.511692391470484E-03  9.207009753874819E-05
 8.464800000000E+02  3.519599117252758E-03  9.249668707366092E-05
 8.465000000000E+02  3.527538701016174E-03  9.292629872390355E-05
 8.465200000000E+02  3.535511441175820E-03  9.335896178689420E-05
 8.465400000000E+02  3.543517637520378E-03  9.379470590891394E-05
 8.465600000000E+02  3.551557591270920E-03  9.423356109036016E-05
 8.465800000000E+02  3.559631605139025E-03  9.467555769108698E-05
 8.466000000000E+02  3.567739983384565E-03  9.512072643583284E-05
 8.466200000000E+02  3.575883031872804E-03  9.556909841973228E-05
 8.466400000000E+02  3.584061058131242E-03  9.602070511392303E-05
 8.466600000000E+02  3.592274371406036E-03  9.647557837124040E-05
 8.466800000000E+02  3.600523282717941E-03  9.693375043200961E-05
 8.467000000000E+02  3.608808104918120E-03  9.739525392993188E-05
 8.467200000000E+02  3.617129152743615E-03  9.786012189807105E-05
 8.467400000000E+02  3.625486742872501E-03  9.832838777493605E-05
 8.467600000000E+02  3.633881193978955E-03  9.880008541067302E-05
 8.467800000000E+02  3.642312826788150E-03  9.927524907335522E-05
 8.468000000000E+02  3.650781964130872E-03  9.975391345538386E-05
 8.468200000000E+02  3.659288930998264E-03  1.002361136799979E-04
 8.468400000000E+02  3.667834054596306E-03  1.007218853078932E-04
 8.468600000000E+02  3.676417664400341E-03  1.012112643439590E-04
 8.468800000000E+02  3.685040092209638E-03  1.017042872441274E-04
 8.469000000000E+02  3.693701672201831E-03  1.022009909223447E-04
 8.469200000000E+02  3.702402740987631E-03  1.027014127576634E-04
 8.469400000000E+02  3.711143637665359E-03  1.032055906014564E-04
 8.469600000000E+02  3.719924703875827E-03  1.037135627847598E-04
 8.469800000000E+02  3.728746283857189E-03  1.042253681257452E-04
 8.470000000000E+02  3.737608724500032E-03  1.047410459373234E-04
 8.470200000000E+02  3.746512375402655E-03  1.052606360348830E-04
 8.470400000000E+02  3.755457588926514E-03  1.057841787441676E-04
 8.470600000000E+02  3.764444720251980E-03  1.063117149092943E-04
 8.470800000000E+02  3.773474127434312E-03  1.068432859009133E-04
 8.471000000000E+02  3.782546171459917E-03  1.073789336245176E-04
 8.471200000000E+02  3.791661216302983E-03  1.079187005289024E-04
 8.471400000000E+02  3.800819628982402E-03  1.084626296147763E-04
 8.471600000000E+02  3.810021779619073E-03  1.090107644435288E-04
 8.471800000000E+02  3.819268041493609E-03  1.095631491461614E-04
 8.472000000000E+02  3.828558791104467E-03  1.101198284323779E-04
 8.472200000000E+02  3.837894408226457E-03  1.106808475998442E-04
 8.472400000000E+02  3.847275275969821E-03  1.112462525436182E-04
 8.472600000000E+02  3.856701780839674E-03  1.118160897657536E-04
 8.472800000000E+02  3.866174312796071E-03  1.123904063850824E-04
 8.473000000000E+02  3.875693265314512E-03  1.129692501471796E-04
 8.473200000000E+02  3.885259035447098E-03  1.135526694345137E-04
 8.473400000000E+02  3.894872023884197E-03  1.141407132767836E-04
 8.473600000000E+02  3.904532635016759E-03  1.147334313614590E-04
 8.473800000000E+02  3.914241276999198E-03  1.153308740445097E-04
 8.474000000000E+02  3.923998361813030E-03  1.159330923613416E-04
 8.474200000000E+02  3.933804305331099E-03  1.165401380379410E-04
 8.474400000000E+02  3.943659527382582E-03  1.171520635022294E-04
 8.474600000000E+02  3.953564451818569E-03  1.177689218956357E-04
 8.474800000000E+02  3.963519506578677E-03  1.183907670848871E-04
 8.475000000000E+02  3.973525123758069E-03  1.190176536740331E-04
 8.475200000000E+02  3.983581739675643E-03  1.196496370166903E-04
 8.475400000000E+02  3.993689794942709E-03  1.202867732285368E-04
 8.475600000000E+02  4.003849734532836E-03  1.209291192000347E-04
 8.475800000000E+02  4.014062007852219E-03  1.215767326094126E-04
 8.476000000000E+02  4.024327068811401E-03  1.222296719358902E-04
 8.476200000000E+02  4.034645375897372E-03  1.228879964731700E-04
 8.476400000000E+02  4.045017392247118E-03  1.235517663431881E-04
 8.476600000000E+02  4.055443585721946E-03  1.242210425101359E-04
 8.476800000000E+02  4.065924428982554E-03  1.248958867947637E-04
 8.477000000000E+02  4.076460399565763E-03  1.255763618889580E-04
 8.477200000000E+02  4.087051979961598E-03  1.262625313706172E-04
 8.477400000000E+02  4.097699657692050E-03  1.269544597188167E-04
 8.477600000000E+02  4.108403925390507E-03  1.276522123292814E-04
 8.477800000000E+02  4.119165280882688E-03  1.283558555301645E-04
 8.478000000000E+02  4.129984227268456E-03  1.290654565981446E-04
 8.478200000000E+02  4.140861273004985E-03  1.297810837748510E-04
 8.478400000000E+02  4.151796931991145E-03  1.305028062836105E-04
 8.478600000000E+02  4.162791723653249E-03  1.312306943465467E-04
 8.478800000000E+02  4.173846173031901E-03  1.319648192020146E-04
 8.479000000000E+02  4.184960810870190E-03  1.327052531224032E-04
 8.479200000000E+02  4.196136173703437E-03  1.334520694322892E-04
 8.479400000000E+02  4.207372803950191E-03  1.342053425269730E-04
 8.479600000000E+02  4.218671250004587E-03  1.349651478913931E-04
 8.479800000000E+02  4.230032066330357E-03  1.357315621194283E-04
 8.480000000000E+02  4.241455813556234E-03  1.365046629336033E-04
 8.480200000000E+02  4.252943058572652E-03  1.372845292052028E-04
 8.480400000000E+02  4.264494374630604E-03  1.380712409747997E-04
 8.480600000000E+02  4.276110341441384E-03  1.388648794732233E-04
 8.480800000000E+02  4.287791545278533E-03  1.396655271429535E-04
 8.481000000000E+02  4.299538579081264E-03  1.404732676599755E-04
 8.481200000000E+02  4.311352042559316E-03  1.412881859560904E-04
 8.481400000000E+02  4.323232542300210E-03  1.421103682416980E-04
 8.481600000000E+02  4.335180691877646E-03  1.429399020290656E-04
 8.481800000000E+02  4.347197111962167E-03  1.437768761560876E-04
 8.482000000000E+02  4.359282430433496E-03  1.446213808105593E-04
 8.482200000000E+02  4.371437282494822E-03  1.454735075549641E-04
 8.482400000000E+02  4.383662310789276E-03  1.463333493517981E-04
 8.482600000000E+02  4.395958165517935E-03  1.472010005894351E-04
 8.482800000000E+02  4.408325504560504E-03  1.480765571085584E-04
 8.483000000000E+02  4.420764993597512E-03  1.489601162291611E-04
 8.483200000000E+02  4.433277306235128E-03  1.498517767781315E-04
 8.483400000000E+02  4.445863124131921E-03  1.507516391174495E-04
 8.483600000000E+02  4.458523137127992E-03  1.516598051729925E-04
 8.483800000000E+02  4.471258043376291E-03  1.525763784639749E-04
 8.484000000000E+02  4.484068549476375E-03  1.535014641330442E-04
 8.484200000000E+02  4.496955370610765E-03  1.544351689770307E-04
 8.484400000000E+02  4.509919230683385E-03  1.553776014783903E-04
 8.484600000000E+02  4.522960862460696E-03  1.563288718373390E-04
 8.484800000000E+02  4.536081007715723E-03  1.572890920047123E-04
 8.485000000000E+02  4.549280417374220E-03  1.582583757155508E-04
 8.485200000000E+02  4.562559851663826E-03  1.592368385234520E-04
 8.485400000000E+02  4.575920080265999E-03  1.602245978356885E-04
 8.485600000000E+02  4.589361882470690E-03  1.612217729491239E-04
 8.485800000000E+02  4.602886047333974E-03  1.622284850869413E-04
 8.486000000000E+02  4.616493373838577E-03  1.632448574362127E-04
 8.486200000000E+02  4.630184671057546E-03  1.642710151863231E-04
 8.486400000000E+02  4.643960758321007E-03  1.653070855682731E-04
 8.486600000000E+02  4.657822465385908E-03  1.663531978948932E-04
 8.486800000000E+02  4.671770632609367E-03  1.674094836019766E-04
 8.487000000000E+02  4.685806111124987E-03  1.684760762903722E-04
 8.487200000000E+02  4.699929763022853E-03  1.695531117690511E-04
 8.487400000000E+02  4.714142461532862E-03  1.706407280991777E-04
 8.487600000000E+02  4.728445091211772E-03  1.717390656392103E-04
 8.487800000000E+02  4.742838548133605E-03  1.728482670910633E-04
 8.488000000000E+02  4.757323740084181E-03  1.739684775473538E-04
 8.488200000000E+02  4.771901586759237E-03  1.750998445397653E-04
 8.488400000000E+02  4.786573019966488E-03  1.762425180885538E-04
 8.488600000000E+02  4.801338983831843E-03  1.773966507532426E-04
 8.488800000000E+02  4.816200435009514E-03  1.785623976845142E-04
 8.489000000000E+02  4.831158342896553E-03  1.797399166773513E-04
 8.489200000000E+02  4.846213689851549E-03  1.809293682254603E-04
 8.489400000000E+02  4.861367471417845E-03  1.821309155769898E-04
