#Spectra: 1
Emin______Emax       8.430000000000000E+02  8.830000000000000E+02
EminPole__EmaxPole   8.532953667758745E+02  8.733686042567176E+02
dE________Gamma      2.000000000000000E-02  1.000000000000000E-01
Energy               Re[0]                  Im[0]                
 8.430000000000E+02  1.911958337615524E-03  6.828420065118801E-05
 8.430200000000E+02  2.033007674856216E-03  6.905220495504632E-05
 8.430400000000E+02  2.150551516103004E-03  6.980701011224743E-05
 8.430600000000E+02  2.262596889503367E-03  7.053979899161786E-05
 8.430800000000E+02  2.367746985143750E-03  7.124437144896319E-05
 8.431000000000E+02  2.465222186288814E-03  7.191724203885704E-05
 8.431200000000E+02  2.554777933747098E-03  7.255728221139321E-05
 8.431400000000E+02  2.636572340604340E-03  7.316513989572961E-05
 8.431600000000E+02  2.711028670489413E-03  7.374263533006919E-05
 8.431800000000E+02  2.778718896672438E-03  7.429224889851015E-05
 8.432000000000E+02  2.840277431072511E-03  7.481674129076019E-05
 8.432200000000E+02  2.896343610902382E-03  7.531889998921031E-05
 8.432400000000E+02  2.947527083905984E-03  7.580138643507387E-05
 8.432600000000E+02  2.994389517046127E-03  7.626665501518865E-05
 8.432800000000E+02  3.037437025778550E-03  7.671691925286311E-05
 8.433000000000E+02  3.077119148809133E-03  7.715414684757262E-05
 8.433200000000E+02  3.113831506861599E-03  7.758007097711294E-05
 8.433400000000E+02  3.147920301069403E-03  7.799620974531971E-05
 8.433600000000E+02  3.179687523757088E-03  7.840388881129110E-05
 8.433800000000E+02  3.209396230303469E-03  7.880426432917060E-05
 8.434000000000E+02  3.237275522686106E-03  7.919834465582535E-05
 8.434200000000E+02  3.263525079479240E-03  7.958701009441250E-05
 8.434400000000E+02  3.288319174973415E-03  7.997103041707909E-05
 8.434600000000E+02  3.311810190165483E-03  8.035108017492292E-05
 8.434800000000E+02  3.334131649332380E-03  8.072775194013807E-05
 8.435000000000E+02  3.355400829655908E-03  8.110156768626447E-05
 8.435200000000E+02  3.375720995315374E-03  8.147298853028594E-05
 8.435400000000E+02  3.395183306111417E-03  8.184242305474630E-05
 8.435600000000E+02  3.413868446709511E-03  8.221023441088511E-05
 8.435800000000E+02  3.431848017545221E-03  8.257674638187288E-05
 8.436000000000E+02  3.449185723181407E-03  8.294224856234977E-05
 8.436200000000E+02  3.465938388903303E-03  8.330700078865761E-05
 8.436400000000E+02  3.482156831796042E-03  8.367123693432353E-05
 8.436600000000E+02  3.497886608546119E-03  8.403516816789955E-05
 8.436800000000E+02  3.513168658746751E-03  8.439898575512548E-05
 8.437000000000E+02  3.528039859530173E-03  8.476286347449918E-05
 8.437200000000E+02  3.542533504845386E-03  8.512695970436822E-05
 8.437400000000E+02  3.556679720589811E-03  8.549141923046734E-05
 8.437600000000E+02  3.570505825032397E-03  8.585637481508198E-05
 8.437800000000E+02  3.584036642481145E-03  8.622194856253389E-05
 8.438000000000E+02  3.597294776906873E-03  8.658825311026891E-05
 8.438200000000E+02  3.610300851195215E-03  8.695539267028852E-05
 8.438400000000E+02  3.623073716829506E-03  8.732346394186549E-05
 8.438600000000E+02  3.635630638077978E-03  8.769255691330539E-05
 8.438800000000E+02  3.647987454148038E-03  8.806275556785440E-05
 8.439000000000E+02  3.660158722256696E-03  8.843413850659729E-05
 8.439200000000E+02  3.672157844134406E-03  8.880677949932602E-05
 8.439400000000E+02  3.683997178115487E-03  8.918074797275297E-05
 8.439600000000E+02  3.695688138661306E-03  8.955610944411602E-05
 8.439800000000E+02  3.707241284901881E-03  8.993292590707548E-05
 8.440000000000E+02  3.718666399561416E-03  9.031125617585815E-05
 8.440200000000E+02  3.729972559446065E-03  9.069115619276838E-05
 8.440400000000E+02  3.741168198512423E-03  9.107267930350842E-05
 8.440600000000E+02  3.752261164399748E-03  9.145587650414288E-05
 8.440800000000E+02  3.763258769192407E-03  9.184079666305133E-05
 8.441000000000E+02  3.774167835079186E-03  9.222748672075982E-05
 8.441200000000E+02  3.784994735491274E-03  9.261599187019146E-05
 8.441400000000E+02  3.795745432226676E-03  9.300635571953408E-05
 8.441600000000E+02  3.806425509005425E-03  9.339862043966726E-05
 8.441800000000E+02  3.817040201845684E-03  9.379282689783784E-05
 8.442000000000E+02  3.827594426603026E-03  9.418901477907318E-05
 8.442200000000E+02  3.838092803974327E-03  9.458722269664583E-05
 8.442400000000E+02  3.848539682231887E-03  9.498748829273469E-05
 8.442600000000E+02  3.858939157922704E-03  9.538984833031658E-05
 8.442800000000E+02  3.869295094740255E-03  9.579433877717828E-05
 8.443000000000E+02  3.879611140753062E-03  9.620099488285201E-05
 8.443200000000E+02  3.889890744152943E-03  9.660985124918530E-05
 8.443400000000E+02  3.900137167668725E-03  9.702094189517598E-05
 8.443600000000E+02  3.910353501774072E-03  9.743430031662827E-05
 8.443800000000E+02  3.920542676805127E-03  9.784995954113880E-05
 8.444000000000E+02  3.930707474090885E-03  9.826795217885207E-05
 8.444200000000E+02  3.940850536188204E-03  9.868831046939245E-05
 8.444400000000E+02  3.950974376303883E-03  9.911106632532153E-05
 8.444600000000E+02  3.961081386978106E-03  9.953625137245257E-05
 8.444800000000E+02  3.971173848095487E-03  9.996389698730178E-05
 8.445000000000E+02  3.981253934283259E-03  1.003940343319414E-04
 8.445200000000E+02  3.991323721750634E-03  1.008266943864870E-04
 8.445400000000E+02  4.001385194618081E-03  1.012619079794256E-04
 8.445600000000E+02  4.011440250779486E-03  1.016997058159822E-04
 8.445800000000E+02  4.021490707337799E-03  1.021401185046939E-04
 8.446000000000E+02  4.031538305649076E-03  1.025831765823393E-04
 8.446200000000E+02  4.041584716008099E-03  1.030289105373809E-04
 8.446400000000E+02  4.051631542004187E-03  1.034773508320339E-04
 8.446600000000E+02  4.061680324574803E-03  1.039285279230812E-04
 8.446800000000E+02  4.071732545780675E-03  1.043824722815498E-04
 8.447000000000E+02  4.081789632324312E-03  1.048392144113293E-04
 8.447200000000E+02  4.091852958833041E-03  1.052987848668339E-04
 8.447400000000E+02  4.101923850923575E-03  1.057612142697825E-04
 8.447600000000E+02  4.112003588066003E-03  1.062265333251675E-04
 8.447800000000E+02  4.122093406261967E-03  1.066947728364867E-04
 8.448000000000E+02  4.132194500550830E-03  1.071659637202934E-04
 8.448200000000E+02  4.142308027357408E-03  1.076401370201237E-04
 8.448400000000E+02  4.152435106692119E-03  1.081173239198519E-04
 8.448600000000E+02  4.162576824214824E-03  1.085975557565230E-04
 8.448800000000E+02  4.172734233172294E-03  1.090808640327050E-04
 8.449000000000E+02  4.182908356218057E-03  1.095672804284004E-04
 8.449200000000E+02  4.193100187123124E-03  1.100568368125551E-04
 8.449400000000E+02  4.203310692385551E-03  1.105495652542011E-04
 8.449600000000E+02  4.213540812745270E-03  1.110454980332583E-04
 8.449800000000E+02  4.223791464611425E-03  1.115446676510339E-04
 8.450000000000E+02  4.234063541407863E-03  1.120471068404385E-04
 8.450200000000E+02  4.244357914841988E-03  1.125528485759471E-04
 8.450400000000E+02  4.254675436103278E-03  1.130619260833317E-04
 8.450600000000E+02  4.265016936994491E-03  1.135743728491805E-04
 8.450800000000E+02  4.275383231001763E-03  1.140902226302304E-04
 8.451000000000E+02  4.285775114306199E-03  1.146095094625289E-04
 8.451200000000E+02  4.296193366741539E-03  1.151322676704396E-04
 8.451400000000E+02  4.306638752701229E-03  1.156585318755179E-04
 8.451600000000E+02  4.317112021998064E-03  1.161883370052586E-04
 8.451800000000E+02  4.327613910679299E-03  1.167217183017450E-04
 8.452000000000E+02  4.338145141800425E-03  1.172587113301973E-04
 8.452200000000E+02  4.348706426159680E-03  1.177993519874461E-04
 8.452400000000E+02  4.359298462996320E-03  1.183436765103370E-04
 8.452600000000E+02  4.369921940654122E-03  1.188917214840795E-04
 8.452800000000E+02  4.380577537213248E-03  1.194435238505460E-04
 8.453000000000E+02  4.391265921091397E-03  1.199991209165422E-04
 8.453200000000E+02  4.401987751616698E-03  1.205585503620434E-04
 8.453400000000E+02  4.412743679574003E-03  1.211218502484212E-04
 8.453600000000E+02  4.423534347725856E-03  1.216890590266582E-04
 8.453800000000E+02  4.434360391309961E-03  1.222602155455615E-04
 8.454000000000E+02  4.445222438514378E-03  1.228353590599916E-04
 8.454200000000E+02  4.456121110931788E-03  1.234145292390939E-04
 8.454400000000E+02  4.467057023993992E-03  1.239977661745692E-04
 8.454600000000E+02  4.478030787387940E-03  1.245851103889612E-04
 8.454800000000E+02  4.489043005454203E-03  1.251766028439854E-04
 8.455000000000E+02  4.500094277568779E-03  1.257722849489036E-04
 8.455200000000E+02  4.511185198509834E-03  1.263721985689425E-04
 8.455400000000E+02  4.522316358809096E-03  1.269763860337718E-04
 8.455600000000E+02  4.533488345090021E-03  1.275848901460425E-04
 8.455800000000E+02  4.544701740392555E-03  1.281977541899925E-04
 8.456000000000E+02  4.555957124485696E-03  1.288150219401231E-04
 8.456200000000E+02  4.567255074168320E-03  1.294367376699556E-04
 8.456400000000E+02  4.578596163559320E-03  1.300629461608697E-04
 8.456600000000E+02  4.589980964376961E-03  1.306936927110330E-04
 8.456800000000E+02  4.601410046208868E-03  1.313290231444195E-04
 8.457000000000E+02  4.612883976772392E-03  1.319689838199346E-04
 8.457200000000E+02  4.624403322166672E-03  1.326136216406353E-04
 8.457400000000E+02  4.635968647116083E-03  1.332629840630639E-04
 8.457600000000E+02  4.647580515206116E-03  1.339171191066946E-04
 8.457800000000E+02  4.659239489111733E-03  1.345760753634979E-04
 8.458000000000E+02  4.670946130819257E-03  1.352399020076301E-04
 8.458200000000E+02  4.682701001841065E-03  1.359086488052461E-04
 8.458400000000E+02  4.694504663424623E-03  1.365823661244492E-04
 8.458600000000E+02  4.706357676755284E-03  1.372611049453765E-04
 8.458800000000E+02  4.718260603154182E-03  1.379449168704275E-04
 8.459000000000E+02  4.730214004270190E-03  1.386338541346404E-04
 8.459200000000E+02  4.742218442267663E-03  1.393279696162132E-04
 8.459400000000E+02  4.754274480009102E-03  1.400273168471911E-04
 8.459600000000E+02  4.766382681233952E-03  1.407319500243105E-04
 8.459800000000E+02  4.778543610732705E-03  1.414419240200055E-04
 8.460000000000E+02  4.790757834517875E-03  1.421572943935931E-04
 8.460200000000E+02  4.803025919990777E-03  1.428781174026263E-04
 8.460400000000E+02  4.815348436105316E-03  1.436044500144319E-04
 8.460600000000E+02  4.827725953528468E-03  1.443363499178383E-04
 8.460800000000E+02  4.840159044797719E-03  1.450738755350800E-04
 8.461000000000E+02  4.852648284475783E-03  1.458170860339167E-04
 8.461200000000E+02  4.865194249302930E-03  1.465660413399372E-04
 8.461400000000E+02  4.877797518346448E-03  1.473208021490802E-04
 8.461600000000E+02  4.890458673148403E-03  1.480814299403610E-04
 8.461800000000E+02  4.903178297870715E-03  1.488479869888172E-04
 8.462000000000E+02  4.915956979438954E-03  1.496205363786777E-04
 8.462200000000E+02  4.928795307683731E-03  1.503991420167555E-04
 8.462400000000E+02  4.941693875480810E-03  1.511838686460839E-04
 8.462600000000E+02  4.954653278889697E-03  1.519747818597782E-04
 8.462800000000E+02  4.967674117290666E-03  1.527719481151558E-04
 8.463000000000E+02  4.980756993520688E-03  1.535754347480996E-04
 8.463200000000E+02  4.993902514008190E-03  1.543853099876824E-04
 8.463400000000E+02  5.007111288906754E-03  1.552016429710555E-04
 8.463600000000E+02  5.020383932228012E-03  1.560245037586012E-04
 8.463800000000E+02  5.033721061973673E-03  1.568539633493743E-04
 8.464000000000E+02  5.047123300266908E-03  1.576900936968116E-04
 8.464200000000E+02  5.060591273483147E-03  1.585329677247418E-04
 8.464400000000E+02  5.074125612380284E-03  1.593826593436893E-04
 8.464600000000E+02  5.087726952228805E-03  1.602392434674816E-04
 8.464800000000E+02  5.101395932941157E-03  1.611027960301668E-04
 8.465000000000E+02  5.115133199201490E-03  1.619733940032502E-04
 8.465200000000E+02  5.128939400594726E-03  1.628511154132576E-04
 8.465400000000E+02  5.142815191735920E-03  1.637360393596297E-04
 8.465600000000E+02  5.156761232399796E-03  1.646282460329615E-04
 8.465800000000E+02  5.170778187650048E-03  1.655278167335881E-04
 8.466000000000E+02  5.184866727969159E-03  1.664348338905295E-04
 8.466200000000E+02  5.199027529388435E-03  1.673493810808019E-04
 8.466400000000E+02  5.213261273618485E-03  1.682715430491003E-04
 8.466600000000E+02  5.227568648180079E-03  1.692014057278739E-04
 8.466800000000E+02  5.241950346535486E-03  1.701390562577801E-04
 8.467000000000E+02  5.256407068220594E-03  1.710845830085539E-04
 8.467200000000E+02  5.270939518977637E-03  1.720380756002801E-04
 8.467400000000E+02  5.285548410888674E-03  1.729996249250916E-04
 8.467600000000E+02  5.300234462509812E-03  1.739693231692956E-04
 8.467800000000E+02  5.314998399006398E-03  1.749472638359423E-04
 8.468000000000E+02  5.329840952289379E-03  1.759335417678450E-04
 8.468200000000E+02  5.344762861152146E-03  1.769282531710677E-04
 8.468400000000E+02  5.359764871409256E-03  1.779314956388767E-04
 8.468600000000E+02  5.374847736035548E-03  1.789433681761865E-04
 8.468800000000E+02  5.390012215307125E-03  1.799639712244957E-04
 8.469000000000E+02  5.405259076943234E-03  1.809934066873362E-04
 8.469200000000E+02  5.420589096249764E-03  1.820317779562421E-04
 8.469400000000E+02  5.436003056264032E-03  1.830791899372477E-04
 8.469600000000E+02  5.451501747901296E-03  1.841357490779373E-04
 8.469800000000E+02  5.467085970102530E-03  1.852015633950507E-04
 8.470000000000E+02  5.482756529984191E-03  1.862767425026638E-04
 8.470200000000E+02  5.498514242989426E-03  1.873613976409527E-04
 8.470400000000E+02  5.514359933041227E-03  1.884556417055657E-04
 8.470600000000E+02  5.530294432697489E-03  1.895595892775998E-04
 8.470800000000E+02  5.546318583307772E-03  1.906733566542215E-04
 8.471000000000E+02  5.562433235172276E-03  1.917970618799226E-04
 8.471200000000E+02  5.578639247702782E-03  1.929308247784465E-04
 8.471400000000E+02  5.594937489585801E-03  1.940747669853827E-04
 8.471600000000E+02  5.611328838947623E-03  1.952290119814720E-04
 8.471800000000E+02  5.627814183522355E-03  1.963936851266086E-04
 8.472000000000E+02  5.644394420821433E-03  1.975689136945829E-04
 8.472200000000E+02  5.661070458306250E-03  1.987548269085672E-04
 8.472400000000E+02  5.677843213562904E-03  1.999515559773712E-04
 8.472600000000E+02  5.694713614479686E-03  2.011592341324859E-04
 8.472800000000E+02  5.711682599427228E-03  2.023779966659247E-04
 8.473000000000E+02  5.728751117441270E-03  2.036079809689051E-04
 8.473200000000E+02  5.745920128408344E-03  2.048493265713639E-04
 8.473400000000E+02  5.763190603254364E-03  2.061021751823509E-04
 8.473600000000E+02  5.780563524136102E-03  2.073666707313086E-04
 8.473800000000E+02  5.798039884635817E-03  2.086429594102695E-04
 8.474000000000E+02  5.815620689958901E-03  2.099311897169860E-04
 8.474200000000E+02  5.833306957135049E-03  2.112315124990249E-04
 8.474400000000E+02  5.851099715222193E-03  2.125440809988462E-04
 8.474600000000E+02  5.869000005514559E-03  2.138690508998949E-04
 8.474800000000E+02  5.887008881753670E-03  2.152065803737300E-04
 8.475000000000E+02  5.905127410343087E-03  2.165568301282150E-04
 8.475200000000E+02  5.923356670566989E-03  2.179199634568074E-04
 8.475400000000E+02  5.941697754812390E-03  2.192961462889590E-04
 8.475600000000E+02  5.960151768795249E-03  2.206855472416813E-04
 8.475800000000E+02  5.978719831790641E-03  2.220883376722758E-04
 8.476000000000E+02  5.997403076866888E-03  2.235046917322858E-04
 8.476200000000E+02  6.016202651124123E-03  2.249347864226895E-04
 8.476400000000E+02  6.035119715936713E-03  2.263788016503743E-04
 8.476600000000E+02  6.054155447200657E-03  2.278369202859107E-04
 8.476800000000E+02  6.073311035585140E-03  2.293093282226850E-04
 8.477000000000E+02  6.092587686788662E-03  2.307962144374096E-04
 8.477200000000E+02  6.111986621800299E-03  2.322977710520516E-04
 8.477400000000E+02  6.131509077165497E-03  2.338141933972189E-04
 8.477600000000E+02  6.151156305256917E-03  2.353456800770480E-04
 8.477800000000E+02  6.170929574550663E-03  2.368924330356272E-04
 8.478000000000E+02  6.190830169907481E-03  2.384546576249975E-04
 8.478200000000E+02  6.210859392859347E-03  2.400325626747834E-04
 8.478400000000E+02  6.231018561901864E-03  2.416263605634894E-04
 8.478600000000E+02  6.251309012792168E-03  2.432362672915045E-04
 8.478800000000E+02  6.271732098852379E-03  2.448625025558799E-04
 8.479000000000E+02  6.292289191279590E-03  2.465052898269091E-04
 8.479200000000E+02  6.312981679461362E-03  2.481648564265698E-04
 8.479400000000E+02  6.333810971297915E-03  2.498414336088858E-04
 8.479600000000E+02  6.354778493530521E-03  2.515352566422485E-04
 8.479800000000E+02  6.375885692076652E-03  2.532465648937608E-04
 8.480000000000E+02  6.397134032371483E-03  2.549756019156704E-04
 8.480200000000E+02  6.418524999717046E-03  2.567226155339260E-04
 8.480400000000E+02  6.440060099637658E-03  2.584878579389534E-04
 8.480600000000E+02  6.461740858243234E-03  2.602715857786685E-04
 8.480800000000E+02  6.483568822599802E-03  2.620740602538454E-04
 8.481000000000E+02  6.505545561107775E-03  2.638955472158620E-04
 8.481200000000E+02  6.527672663887939E-03  2.657363172669086E-04
 8.481400000000E+02  6.549951743175642E-03  2.675966458627401E-04
 8.481600000000E+02  6.572384433723313E-03  2.694768134180307E-04
 8.481800000000E+02  6.594972393211167E-03  2.713771054144237E-04
 8.482000000000E+02  6.617717302666883E-03  2.732978125113289E-04
 8.482200000000E+02  6.640620866894153E-03  2.752392306595818E-04
 8.482400000000E+02  6.663684814910279E-03  2.772016612180213E-04
 8.482600000000E+02  6.686910900393234E-03  2.791854110730879E-04
 8.482800000000E+02  6.710300902138382E-03  2.811907927615350E-04
 8.483000000000E+02  6.733856624525098E-03  2.832181245963238E-04
 8.483200000000E+02  6.757579897993396E-03  2.852677307958288E-04
 8.483400000000E+02  6.781472579531271E-03  2.873399416164246E-04
 8.483600000000E+02  6.805536553172295E-03  2.894350934885861E-04
 8.483800000000E+02  6.829773730504739E-03  2.915535291565722E-04
 8.484000000000E+02  6.854186051191422E-03  2.936955978218404E-04
 8.484200000000E+02  6.878775483501581E-03  2.958616552902758E-04
 8.484400000000E+02  6.903544024854215E-03  2.980520641233704E-04
 8.484600000000E+02  6.928493702374065E-03  3.002671937934647E-04
 8.484800000000E+02  6.953626573459590E-03  3.025074208431865E-04
 8.485000000000E+02  6.978944726364412E-03  3.047731290492066E-04
 8.485200000000E+02  7.004450280791504E-03  3.070647095904483E-04
 8.485400000000E+02  7.030145388501039E-03  3.093825612209020E-04
 8.485600000000E+02  7.056032233932340E-03  3.117270904471788E-04
 8.485800000000E+02  7.082113034840120E-03  3.140987117109419E-04
 8.486000000000E+02  7.108390042945265E-03  3.164978475764045E-04
 8.486200000000E+02  7.134865544600866E-03  3.189249289230192E-04
 8.486400000000E+02  7.161541861473882E-03  3.213803951435434E-04
 8.486600000000E+02  7.188421351242455E-03  3.238646943476521E-04
 8.486800000000E+02  7.215506408310152E-03  3.263782835712730E-04
 8.487000000000E+02  7.242799464536463E-03  3.289216289918303E-04
 8.487200000000E+02  7.270302989985202E-03  3.314952061495929E-04
 8.487400000000E+02  7.298019493690408E-03  3.340995001753193E-04
 8.487600000000E+02  7.325951524440705E-03  3.367350060244024E-04
 8.487800000000E+02  7.354101671582489E-03  3.394022287177599E-04
 8.488000000000E+02  7.382472565842531E-03  3.421016835896289E-04
 8.488200000000E+02  7.411066880170588E-03  3.448338965425750E-04
 8.488400000000E+02  7.439887330602343E-03  3.475994043098772E-04
 8.488600000000E+02  7.468936677143741E-03  3.503987547256022E-04
 8.488800000000E+02  7.498217724676893E-03  3.532325070025766E-04
 8.489000000000E+02  7.527733323888207E-03  3.561012320185503E-04
 8.489200000000E+02  7.557486372219871E-03  3.590055126108354E-04
 8.489400000000E+02  7.587479814844761E-03  3.619459438796630E-04
